TL-DOS Lehrstuhlversuch
detector=R1408305
job_number=2015-10-16-001
irradiation_dose [mSv]=1.0

[BEGIN DATA]
time [sec] 	 temperature [K] 	 photoncount 
0.0	149.424641568	0.0
0.0102	150.91053127	0.0
0.0205	152.405482952	0.0
0.0307	153.8804884	2.0
0.041	155.364489448	0.0
0.0512	156.828690369	1.0
0.0614	158.287544902	3.0
0.0717	159.755296537	2.0
0.0819	161.20346485	0.0
0.0922	162.660465093	1.0
0.1024	164.098025463	2.0
0.1126	165.530336722	1.0
0.1229	166.971383202	2.0
0.1331	168.393202672	0.0
0.1434	169.823693377	2.0
0.1536	171.235097912	0.0
0.1638	172.64134884	2.0
0.1741	174.056176055	0.0
0.1843	175.452126088	0.0
0.1946	176.856589588	0.0
0.2048	178.242314181	2.0
0.215	179.622978935	2.0
0.2253	181.012063935	0.0
0.2355	182.382615216	0.0
0.2458	183.761525063	0.0
0.256	185.122036952	0.0
0.2662	186.477581063	0.0
0.2765	187.841392217	0.0
0.2867	189.187006864	0.0
0.297	190.540827999	0.0
0.3072	191.876585917	0.0
0.3174	193.207466445	1.0
0.3277	194.5464636	0.0
0.3379	195.867595328	0.0
0.3482	197.196784228	0.0
0.3584	198.508238565	0.0
0.3686	199.814904254	0.0
0.3789	201.129538891	0.0
0.3891	202.426633155	0.0
0.3994	203.731637994	0.0
0.4096	205.019230945	1.0
0.4198	206.302122374	0.0
0.4301	207.592837759	1.0
0.4403	208.866331912	0.0
0.4506	210.14759271	0.0
0.4608	211.411758421	0.0
0.471	212.671308153	0.0
0.4813	213.938539489	0.0
0.4915	215.188862924	0.0
0.5018	216.446811694	0.0
0.512	217.687976416	0.0
0.5222	218.924609144	0.0
0.5325	220.168783712	0.0
0.5427	221.396358013	0.0
0.553	222.631418908	0.0
0.5632	223.850001134	1.0
0.5734	225.064133824	0.0
0.5837	226.285671133	0.0
0.5939	227.49091021	0.0
0.6042	228.703499666	2.0
0.6144	229.899910276	0.0
0.6246	231.091952307	0.0
0.6349	232.291264234	0.0
0.6451	233.474574467	0.0
0.6554	234.665101343	0.0
0.6656	235.83974374	1.0
0.6758	237.010097043	0.0
0.6861	238.187587968	0.0
0.6963	239.349368345	0.0
0.7066	240.518234061	0.0
0.7168	241.671504309	0.0
0.727	242.820563502	0.0
0.7373	243.97663045	1.0
0.7475	245.117272698	0.0
0.7578	246.264871369	0.0
0.768	247.397158326	0.0
0.7782	248.525310846	0.0
0.7885	249.660343619	0.0
0.7987	250.780232337	0.0
0.809	251.906950909	0.0
0.8192	253.018636358	0.0
0.8294	254.126262594	0.0
0.8397	255.240643899	0.0
0.8499	256.34015669	0.0
0.8602	257.446375068	0.0
0.8704	258.537833844	0.0
0.8806	259.625307264	0.0
0.8909	260.719412847	1.0
0.9011	261.798920442	0.0
0.9114	262.885011619	1.0
0.9216	263.956611739	0.0
0.9318	265.024299015	0.0
0.9421	266.098497784	0.0
0.9523	267.15836417	0.0
0.9626	268.224694352	0.0
0.9728	269.276797137	0.0
0.983	270.325058269	0.0
0.9933	271.379712422	0.0
1.0035	272.420294962	0.0
1.0138	273.467223693	0.0
1.024	274.500183888	0.0
1.0342	275.529372329	0.0
1.0445	276.564837471	0.0
1.0547	277.586487028	0.0
1.065	278.614367309	0.0
1.0752	279.628533206	0.0
1.0854	280.638995975	0.0
1.0957	281.655621242	0.0
1.1059	282.658682294	0.0
1.1162	283.667860705	0.0
1.1264	284.663574259	0.0
1.1366	285.655652062	0.0
1.1469	286.653780239	0.0
1.1571	287.638590996	0.0
1.1674	288.629407809	1.0
1.1776	289.607004753	0.0
1.1878	290.581032097	0.0
1.1981	291.560999731	0.0
1.2083	292.52789225	0.0
1.2186	293.500681547	0.0
1.2288	294.460491506	0.0
1.239	295.416796811	0.0
1.2493	296.378934326	0.0
1.2595	297.328234623	0.0
1.2698	298.283324407	0.0
1.28	299.225671008	1.0
1.2902	300.16457672	0.0
1.3005	301.109208528	0.0
1.3107	302.041236685	0.0
1.321	302.978948993	1.0
1.3312	303.904149974	0.0
1.3414	304.825972672	2.0
1.3517	305.753417281	0.0
1.3619	306.668487559	0.0
1.3722	307.589138567	0.0
1.3824	308.497505885	0.0
1.3926	309.402556388	0.0
1.4029	310.313126514	1.0
1.4131	311.211547454	1.0
1.4234	312.115447584	1.0
1.4336	313.007287523	0.0
1.4438	313.895870994	1.0
1.4541	314.78987366	0.0
1.4643	315.67194819	1.0
1.4746	316.559402219	0.0
1.4848	317.435015487	0.0
1.495	318.307431537	1.0
1.5053	319.185168182	0.0
1.5155	320.051193719	0.0
1.5258	320.922500876	0.0
1.536	321.78218271	3.0
1.5462	322.638725499	0.0
1.5565	323.500492077	2.0
1.5667	324.350760625	0.0
1.577	325.206214698	2.0
1.5872	326.050254965	2.0
1.5974	326.8912133	1.0
1.6077	327.73730038	0.0
1.6179	328.572098632	1.0
1.6282	329.411988059	0.0
1.6384	330.240671351	3.0
1.6486	331.066328786	4.0
1.6589	331.897021649	0.0
1.6691	332.716631081	1.0
1.6794	333.541239056	3.0
1.6896	334.354844786	4.0
1.6998	335.165479714	1.0
1.7101	335.981058453	5.0
1.7203	336.785755419	1.0
1.7306	337.595359982	4.0
1.7408	338.394162481	3.0
1.751	339.190048231	2.0
1.7613	339.99078784	3.0
1.7715	340.780843666	5.0
1.7818	341.575717798	4.0
1.792	342.359986405	4.0
1.8022	343.141391332	7.0
1.8125	343.927561805	5.0
1.8227	344.703242881	7.0
1.833	345.483654595	3.0
1.8432	346.253653749	9.0
1.8534	347.020841325	5.0
1.8637	347.792707741	9.0
1.8739	348.55427561	5.0
1.8842	349.320488045	3.0
1.8944	350.076477372	4.0
1.9046	350.829706277	8.0
1.9149	351.587528892	16.0
1.9251	352.335240338	9.0
1.9354	353.087511845	7.0
1.9456	353.829746248	14.0
1.9558	354.569270454	13.0
1.9661	355.313304789	14.0
1.9763	356.047411925	9.0
1.9866	356.785996152	9.0
1.9968	357.514725897	10.0
2.007	358.240794756	9.0
2.0173	358.971291684	14.0
2.0275	359.692042034	8.0
2.0378	360.417188017	18.0
2.048	361.132658815	16.0
2.0582	361.845517142	17.0
2.0685	362.56272297	18.0
2.0787	363.270359555	27.0
2.089	363.982311797	19.0
2.0992	364.684764891	27.0
2.1094	365.384653045	29.0
2.1197	366.0888096	31.0
2.1299	366.78357102	34.0
2.1402	367.482569575	30.0
2.1504	368.172241816	26.0
2.1606	368.859395785	33.0
2.1709	369.550740493	42.0
2.1811	370.232861007	35.0
2.1914	370.919141563	40.0
2.2016	371.596265493	35.0
2.2118	372.27091697	30.0
2.2221	372.949682938	48.0
2.2323	373.619392542	35.0
2.2426	374.293186497	50.0
2.2528	374.957990428	57.0
2.263	375.620366892	46.0
2.2733	376.286782984	61.0
2.2835	376.944307489	45.0
2.2938	377.605842033	46.0
2.304	378.258550122	70.0
2.3142	378.908874911	59.0
2.3245	379.563165828	82.0
2.3347	380.208726939	82.0
2.345	380.858225126	60.0
2.3552	381.499057452	78.0
2.3654	382.137549841	74.0
2.3757	382.779936197	75.0
2.3859	383.413751582	96.0
2.3962	384.051432409	89.0
2.4064	384.680605047	102.0
2.4166	385.307480323	96.0
2.4269	385.938178716	109.0
2.4371	386.560462082	111.0
2.4474	387.186540562	106.0
2.4576	387.804265656	122.0
2.4678	388.419735186	115.0
2.4781	389.038958274	124.0
2.4883	389.649919444	112.0
2.4986	390.264606676	132.0
2.5088	390.871092509	137.0
2.519	391.475363817	127.0
2.5293	392.083320388	134.0
2.5395	392.683165364	125.0
2.5498	393.286668607	149.0
2.56	393.882119673	153.0
2.5702	394.475396506	135.0
2.5805	395.072291551	155.0
2.5907	395.661222587	172.0
2.601	396.253745331	160.0
2.6112	396.838362402	155.0
2.6214	397.420844801	189.0
2.6317	398.006879579	172.0
2.6419	398.58509525	182.0
2.6522	399.166837279	173.0
2.6624	399.740817476	159.0
2.6726	400.312701841	185.0
2.6829	400.88807395	201.0
2.6931	401.455769219	193.0
2.7034	402.026926684	176.0
2.7136	402.590463541	197.0
2.7238	403.151942698	178.0
2.7341	403.716846143	201.0
2.7443	404.274212422	227.0
2.7546	404.834977906	184.0
2.7648	405.388261436	190.0
2.775	405.939524704	210.0
2.7853	406.494149956	184.0
2.7955	407.041375179	180.0
2.8058	407.591937759	188.0
2.816	408.135154516	179.0
2.8262	408.676387769	158.0
2.8365	409.220921836	165.0
2.8467	409.758190515	153.0
2.857	410.298735829	166.0
2.8672	410.832068974	164.0
2.8774	411.363454705	164.0
2.8877	411.898081193	163.0
2.8979	412.425574483	146.0
2.9082	412.956284791	132.0
2.9184	413.479914153	143.0
2.9286	414.001631533	125.0
2.9389	414.526530705	129.0
2.9491	415.044426466	119.0
2.9594	415.565480712	137.0
2.9696	416.079582847	121.0
2.9798	416.591807788	111.0
2.9901	417.10715663	99.0
3.0003	417.615629484	107.0
3.0106	418.127203357	94.0
3.0208	418.631951609	100.0
3.031	419.134856822	118.0
3.0413	419.640829097	95.0
3.0515	420.140050491	95.0
3.0618	420.642316482	84.0
3.072	421.137881042	102.0
3.0822	421.631636095	78.0
3.0925	422.128402407	82.0
3.1027	422.618540668	102.0
3.113	423.11166813	103.0
3.1232	423.59821609	88.0
3.1334	424.082987468	77.0
3.1437	424.570715316	98.0
3.1539	425.051935707	102.0
3.1642	425.536090911	93.0
3.1744	426.013786326	95.0
3.1846	426.489737482	92.0
3.1949	426.968591317	88.0
3.2051	427.441056095	99.0
3.2154	427.91640229	87.0
3.2256	428.385406228	94.0
3.2358	428.852697643	99.0
3.2461	429.322838924	92.0
3.2563	429.786707394	100.0
3.2666	430.253404854	108.0
3.2768	430.713875453	110.0
3.287	431.172664688	112.0
3.2973	431.634251936	111.0
3.3075	432.089680505	113.0
3.3178	432.547886592	121.0
3.328	432.999979112	120.0
3.3382	433.45042086	114.0
3.3485	433.903609713	128.0
3.3587	434.350751941	146.0
3.369	434.800621151	113.0
3.3792	435.244488029	121.0
3.3894	435.68673417	123.0
3.3997	436.131677432	132.0
3.4099	436.570684087	131.0
3.4202	437.012368106	116.0
3.4304	437.448159004	167.0
3.4406	437.882358653	144.0
3.4509	438.319206351	168.0
3.4611	438.750225454	170.0
3.4714	439.18387321	172.0
3.4816	439.611735066	136.0
3.4918	440.038034626	161.0
3.5021	440.466934055	183.0
3.5123	440.890110938	174.0
3.5226	441.315868646	169.0
3.5328	441.735945727	139.0
3.543	442.154488937	165.0
3.5533	442.575584712	173.0
3.5635	442.991062061	188.0
3.5738	443.409073278	174.0
3.584	443.821507224	167.0
3.5942	444.232435208	155.0
3.6045	444.645869314	163.0
3.6147	445.053787219	182.0
3.625	445.464192889	183.0
3.6352	445.869122764	183.0
3.6454	446.272574077	175.0
3.6557	446.678485915	201.0
3.6659	447.078981917	175.0
3.6762	447.481920419	155.0
3.6864	447.879482758	195.0
3.6966	448.275593436	176.0
3.7069	448.67411987	171.0
3.7171	449.067329007	165.0
3.7274	449.462936205	169.0
3.7376	449.853265055	180.0
3.7478	450.242168658	174.0
3.7581	450.633444063	166.0
3.7683	451.019498917	183.0
3.7786	451.4079082	177.0
3.7888	451.791135173	157.0
3.799	452.17296283	150.0
3.8093	452.557119135	159.0
3.8195	452.936149876	144.0
3.8298	453.317492207	158.0
3.84	453.693746519	172.0
3.8502	454.068626974	166.0
3.8605	454.445793709	166.0
3.8707	454.817928137	166.0
3.881	455.192332097	149.0
3.8912	455.561740612	151.0
3.9014	455.929800267	140.0
3.9117	456.300104604	133.0
3.9219	456.665468195	106.0
3.9322	457.033060024	153.0
3.9424	457.395747299	128.0
3.9526	457.757110256	139.0
3.9629	458.120677054	155.0
3.9731	458.479393	147.0
3.9834	458.840296643	135.0
3.9936	459.196384968	152.0
4.0038	459.551173071	137.0
4.0141	459.908124916	136.0
4.0243	460.260314169	141.0
4.0346	460.614651314	138.0
4.0448	460.964260754	127.0
4.055	461.312593629	157.0
4.0653	461.663050878	127.0
4.0755	462.008832189	135.0
4.0858	462.356722312	136.0
4.096	462.699970748	124.0
4.1062	463.041965845	142.0
4.1165	463.386046665	125.0
4.1267	463.725536623	119.0
4.137	464.067097024	130.0
4.1472	464.404100192	134.0
4.1574	464.739872825	138.0
4.1677	465.077693232	145.0
4.1779	465.411006306	121.0
4.1882	465.746352152	133.0
4.1984	466.077223682	121.0
4.2086	466.406887067	137.0
4.2189	466.738560966	146.0
4.2291	467.065809542	136.0
4.2394	467.395053905	136.0
4.2496	467.71990536	124.0
4.2598	468.043570651	119.0
4.2701	468.369209876	125.0
4.2803	468.690504295	151.0
4.2906	469.013758188	139.0
4.3008	469.3326991	109.0
4.311	469.650475431	128.0
4.3213	469.970189781	133.0
4.3315	470.285638376	137.0
4.3418	470.603010794	138.0
4.352	470.916148704	127.0
4.3622	471.228143221	137.0
4.3725	471.542040497	137.0
4.3827	471.851749631	154.0
4.393	472.163347584	157.0
4.4032	472.470788075	141.0
4.4134	472.777105977	119.0
4.4237	473.085292017	162.0
4.4339	473.389366117	118.0
4.4442	473.695294671	135.0
4.4544	473.997141405	138.0
4.4646	474.297885975	151.0
4.4749	474.600464693	124.0
4.4851	474.899006286	124.0
4.4954	475.199368592	115.0
4.5056	475.495723346	129.0
4.5158	475.790995989	135.0
4.5261	476.088069408	131.0
4.5363	476.381179156	134.0
4.5466	476.67607649	125.0
4.5568	476.967039188	114.0
4.567	477.256939463	147.0
4.5773	477.54860775	117.0
4.5875	477.836384484	152.0
4.5978	478.125916278	113.0
4.608	478.411585026	132.0
4.6182	478.696210681	130.0
4.6285	478.982572181	115.0
4.6387	479.265112932	115.0
4.649	479.549376811	123.0
4.6592	479.82984793	140.0
4.6694	480.109294936	129.0
4.6797	480.390446202	128.0
4.6899	480.667846237	113.0
4.7002	480.946938049	133.0
4.7104	481.222306108	128.0
4.7206	481.496668687	126.0
4.7309	481.772704518	88.0
4.7411	482.045057371	105.0
4.7514	482.319071219	119.0
4.7616	482.589429066	141.0
4.7718	482.858799728	101.0
4.7821	483.129813197	121.0
4.7923	483.397210698	114.0
4.8026	483.666238974	135.0
4.8128	483.931677768	120.0
4.823	484.196147338	107.0
4.8333	484.462229826	125.0
4.8435	484.724762137	105.0
4.8538	484.988895551	111.0
4.864	485.249504792	120.0
4.8742	485.509162444	121.0
4.8845	485.770403668	114.0
4.8947	486.028159308	117.0
4.905	486.28748692	119.0
4.9152	486.54335448	112.0
4.9254	486.798287765	100.0
4.9357	487.054775809	106.0
4.9459	487.307841689	111.0
4.9562	487.562450938	129.0
4.9664	487.813663091	110.0
4.9766	488.063957966	109.0
4.9869	488.315779313	117.0
4.9971	488.56424076	99.0
5.0074	488.814217496	105.0
5.0176	489.060858944	103.0
5.0278	489.306599804	109.0
5.0381	489.553839362	109.0
5.0483	489.797780152	106.0
5.0586	490.043208662	122.0
5.0688	490.285362567	109.0
5.079	490.526632271	111.0
5.0893	490.769373404	103.0
5.0995	491.008875789	129.0
5.1098	491.249838825	118.0
5.12	491.487586837	126.0
5.1302	491.724466735	124.0
5.1405	491.96279129	125.0
5.1507	492.197936024	105.0
5.161	492.434514834	105.0
5.1712	492.667937116	118.0
5.1814	492.900507079	113.0
5.1917	493.134495414	110.0
5.2019	493.365361785	110.0
5.2122	493.597636137	130.0
5.2224	493.826811394	113.0
5.2326	494.05514984	101.0
5.2429	494.284880851	131.0
5.2531	494.5115467	107.0
5.2634	494.739594914	124.0
5.2736	494.964600418	96.0
5.2838	495.188784337	107.0
5.2941	495.414335484	119.0
5.3043	495.636877239	110.0
5.3146	495.860776206	112.0
5.3248	496.081687826	102.0
5.335	496.301792808	123.0
5.3453	496.523240142	123.0
5.3555	496.741732838	124.0
5.3658	496.961558054	99.0
5.376	497.178450275	108.0
5.3862	497.394550535	95.0
5.3965	497.611968723	103.0
5.4067	497.826486032	106.0
5.417	498.042311616	98.0
5.4272	498.255257569	115.0
5.4374	498.467425971	110.0
5.4477	498.680888323	124.0
5.4579	498.891502575	111.0
5.4682	499.103401299	97.0
5.4784	499.312472786	128.0
5.4886	499.520780869	102.0
5.4989	499.730359358	107.0
5.5091	499.937141568	117.0
5.5194	500.145184879	107.0
5.5296	500.350452394	106.0
5.5398	500.554970395	109.0
5.5501	500.760735687	110.0
5.5603	500.963755578	111.0
5.5706	501.168013624	99.0
5.5808	501.369546378	108.0
5.591	501.570343256	98.0
5.6013	501.772364731	123.0
5.6115	501.971690756	128.0
5.6218	502.172232408	96.0
5.632	502.370098355	101.0
5.6422	502.567241813	97.0
5.6525	502.765587589	101.0
5.6627	502.961286956	107.0
5.673	503.158179834	95.0
5.6832	503.352445689	106.0
5.6934	503.546002201	108.0
5.7037	503.740739154	111.0
5.7139	503.93287785	101.0
5.7242	504.12618834	104.0
5.7344	504.316919605	120.0
5.7446	504.506954434	105.0
5.7549	504.698148226	113.0
5.7651	504.886791035	78.0
5.7754	505.076584318	96.0
5.7856	505.263845305	90.0
5.7958	505.450422526	99.0
5.8061	505.638137623	93.0
5.8163	505.823348152	93.0
5.8266	506.009688222	82.0
5.8368	506.19354207	94.0
5.847	506.376724592	83.0
5.8573	506.561024289	88.0
5.8675	506.742864986	102.0
5.8778	506.925814673	90.0
5.888	507.106323373	88.0
5.8982	507.286172964	81.0
5.9085	507.467119401	72.0
5.9187	507.645651579	84.0
5.929	507.82527257	75.0
5.9392	508.002496986	81.0
5.9494	508.179074285	80.0
5.9597	508.356728474	75.0
5.9699	508.532012331	101.0
5.9802	508.70836519	80.0
5.9904	508.882365079	72.0
6.0006	509.055729624	73.0
6.0109	509.230151467	70.0
6.0211	509.402246104	74.0
6.0314	509.575390292	72.0
6.0416	509.746224323	70.0
6.0518	509.91643457	63.0
6.0621	510.087682877	57.0
6.0723	510.256646321	69.0
6.0826	510.42664022	69.0
6.0928	510.594365994	70.0
6.103	510.761479334	72.0
6.1133	510.929611846	77.0
6.1235	511.095501067	71.0
6.1338	511.262401996	55.0
6.144	511.427076066	54.0
6.1542	511.591148845	62.0
6.1645	511.756222254	62.0
6.1747	511.919093187	49.0
6.185	512.08295742	50.0
6.1952	512.244635312	59.0
6.2054	512.405722852	52.0
6.2157	512.567792816	62.0
6.2259	512.727700378	62.0
6.2362	512.888583166	49.0
6.2464	513.047319394	43.0
6.2566	513.205476011	42.0
6.2669	513.364597176	48.0
6.2771	513.521595284	51.0
6.2874	513.679550874	43.0
6.2976	513.835398959	35.0
6.3078	513.99067798	44.0
6.3181	514.146903999	43.0
6.3283	514.301045589	53.0
6.3386	514.456127241	37.0
6.3488	514.609139733	34.0
6.359	514.761593514	38.0
6.3693	514.914977063	38.0
6.3795	515.066314108	42.0
6.3898	515.218574112	24.0
6.4	515.368802602	33.0
6.4102	515.518482547	33.0
6.4205	515.669075344	31.0
6.4307	515.817658873	22.0
6.441	515.967148566	25.0
6.4512	516.114643709	26.0
6.4614	516.261600288	28.0
6.4717	516.409453109	19.0
6.4819	516.555333219	26.0
6.4922	516.702103008	25.0
6.5024	516.846914535	13.0
6.5126	516.991197298	25.0
6.5229	517.136359996	22.0
6.5331	517.279585876	16.0
6.5434	517.423685247	18.0
6.5536	517.565861987	20.0
6.5638	517.707519582	24.0
6.5741	517.850041103	22.0
6.5843	517.990661046	25.0
6.5946	518.132138586	24.0
6.6048	518.271728477	15.0
6.615	518.410808669	16.0
6.6253	518.550737068	16.0
6.6355	518.688798487	21.0
6.6458	518.8277019	24.0
6.656	518.964752008	17.0
6.6662	519.101301692	15.0
6.6765	519.238684149	13.0
6.6867	519.374233596	15.0
6.697	519.510609717	13.0
6.7072	519.645166254	11.0
6.7174	519.77923147	12.0
6.7277	519.914114309	10.0
6.7379	520.047197488	10.0
6.7482	520.1810923	10.0
6.7584	520.313200634	19.0
6.7686	520.444826588	5.0
6.7789	520.577255287	7.0
6.7891	520.70791707	12.0
6.7994	520.83937572	3.0
6.8096	520.969080396	12.0
6.8198	521.098311468	7.0
6.8301	521.22833068	9.0
6.8403	521.356615125	14.0
6.8506	521.485681936	12.0
6.8608	521.613026688	11.0
6.871	521.739906452	4.0
6.8813	521.867560016	10.0
6.8915	521.993510377	7.0
6.9018	522.120228869	9.0
6.912	522.245256634	2.0
6.9222	522.369827872	3.0
6.9325	522.495158831	8.0
6.9427	522.618817575	7.0
6.953	522.743230475	3.0
6.9632	522.865983409	5.0
6.9734	522.988288123	8.0
6.9837	523.111338736	4.0
6.9939	523.232747558	4.0
7.0042	523.354896816	6.0
7.0144	523.475416309	6.0
7.0246	523.595495738	3.0
7.0349	523.716307493	5.0
7.0451	523.835507331	2.0
7.0554	523.955434131	6.0
7.0656	524.073760821	8.0
7.0758	524.191655453	4.0
7.0861	524.310269087	10.0
7.0963	524.427300131	3.0
7.1066	524.545044911	3.0
7.1168	524.661218694	6.0
7.127	524.77696828	5.0
7.1373	524.893423786	0.0
7.1475	525.008325497	5.0
7.1578	525.123927958	4.0
7.168	525.237988006	5.0
7.1782	525.351631574	1.0
7.1885	525.465968219	4.0
7.1987	525.578779339	3.0
7.209	525.69227846	5.0
7.2192	525.80426323	0.0
7.2294	525.915839099	1.0
7.2397	526.028095435	2.0
7.2499	526.138854002	1.0
7.2602	526.250288051	5.0
7.2704	526.360235304	2.0
7.2806	526.469781094	3.0
7.2909	526.579994971	5.0
7.3011	526.68873833	1.0
7.3114	526.798144881	2.0
7.3216	526.906091687	4.0
7.3318	527.013644336	3.0
7.3421	527.121852915	4.0
7.3523	527.228617733	2.0
7.3626	527.336033676	4.0
7.3728	527.442016433	3.0
7.383	527.547612204	1.0
7.3933	527.653851971	1.0
7.4035	527.758674245	3.0
7.4138	527.864135798	0.0
7.424	527.968190241	1.0
7.4342	528.07186474	6.0
7.4445	528.176171517	1.0
7.4547	528.279086592	0.0
7.465	528.382629314	3.0
7.4752	528.484790528	0.0
7.4854	528.58657871	0.0
7.4957	528.688987667	1.0
7.5059	528.790030243	1.0
7.5162	528.891689047	1.0
7.5264	528.991991479	2.0
7.5366	529.091927666	3.0
7.5469	529.192473333	0.0
7.5571	529.29167748	3.0
7.5674	529.391486642	2.0
7.5776	529.489964111	2.0
7.5878	529.588081999	1.0
7.5981	529.686798278	0.0
7.6083	529.784197445	1.0
7.6186	529.88219062	1.0
7.6288	529.978876331	2.0
7.639	530.075209003	1.0
7.6493	530.172129179	0.0
7.6595	530.267756207	2.0
7.6698	530.363966435	1.0
7.68	530.458892988	1.0
7.6902	530.553472926	2.0
7.7005	530.648629677	1.0
7.7107	530.74251681	1.0
7.721	530.836976531	2.0
7.7312	530.930175934	1.0
7.7414	531.023035028	0.0
7.7517	531.11646044	1.0
7.7619	531.208639334	0.0
7.7722	531.301380399	3.0
7.7824	531.392884075	1.0
7.7926	531.484053635	2.0
7.8029	531.575779209	2.0
7.8131	531.666280945	2.0
7.8234	531.757334623	3.0
7.8336	531.847173427	0.0
7.8438	531.936684193	1.0
7.8541	532.026740857	0.0
7.8643	532.11559595	0.0
7.8746	532.204992942	1.0
