TL-DOS Lehrstuhlversuch
detector=R1408305
job_number=2015-10-22-008
irradiation_dose [mSv]=3.0

[BEGIN DATA]
time [sec] 	 temperature [K] 	 photoncount 
0.0	65.1015121598	0.0
0.0102	67.6377389226	0.0
0.0205	70.1851315198	3.0
0.0307	72.6942984644	1.0
0.041	75.2145121115	1.0
0.0512	77.6969079478	2.0
0.0614	80.1660901316	1.0
0.0717	82.6461429833	0.0
0.0819	85.0889806691	2.0
0.0922	87.5425730401	1.0
0.1024	89.9593473057	0.0
0.1126	92.3632572187	1.0
0.1229	94.777750436	1.0
0.1331	97.1560122617	0.0
0.1434	99.5447444752	0.0
0.1536	101.897631861	1.0
0.1638	104.237994961	1.0
0.1741	106.588661598	1.0
0.1843	108.904054612	3.0
0.1946	111.229641231	1.0
0.2048	113.520330573	1.0
0.215	115.798826706	0.0
0.2253	118.087354003	0.0
0.2355	120.341540128	0.0
0.2458	122.605650393	0.0
0.256	124.835785882	0.0
0.2662	127.054050486	0.0
0.2765	129.282081084	0.0
0.2867	131.47667831	0.0
0.297	133.680937333	0.0
0.3072	135.852119696	0.0
0.3174	138.011744979	1.0
0.3277	140.180878093	0.0
0.3379	142.31746164	0.0
0.3482	144.463451576	0.0
0.3584	146.577239226	0.0
0.3686	148.679775304	0.0
0.3789	150.791567877	0.0
0.3891	152.871671322	0.0
0.3994	154.960932501	0.0
0.4096	157.018842654	0.0
0.4198	159.065798668	0.0
0.4301	161.121766483	0.0
0.4403	163.146882866	0.0
0.4506	165.1809149	0.0
0.4608	167.184424665	0.0
0.471	169.177269861	0.0
0.4813	171.178888633	1.0
0.4915	173.150471524	0.0
0.5018	175.130734382	0.0
0.512	177.081281821	0.0
0.5222	179.021446607	0.0
0.5325	180.970153041	0.0
0.5427	182.889617585	1.0
0.553	184.817532644	0.0
0.5632	186.716517804	0.0
0.5734	188.605394774	1.0
0.5837	190.502587596	0.0
0.5939	192.37131153	0.0
0.6042	194.248262592	0.0
0.6144	196.09704851	0.0
0.6246	197.935993445	0.0
0.6349	199.783034405	0.0
0.6451	201.602359046	0.0
0.6554	203.429693333	0.0
0.6656	205.229607015	0.0
0.6758	207.019939858	0.0
0.6861	208.818154709	2.0
0.6963	210.589385916	0.0
0.7066	212.368415036	0.0
0.7168	214.120748408	0.0
0.727	215.863754208	0.0
0.7373	217.614433658	0.0
0.7475	219.33884277	1.0
0.7578	221.070843658	0.0
0.768	222.776854495	0.0
0.7782	224.473784333	1.0
0.7885	226.178184968	1.0
0.7987	227.857009716	0.0
0.809	229.543225554	1.0
0.8192	231.204138382	2.0
0.8294	232.856210264	0.0
0.8397	234.515555456	1.0
0.8499	236.150000852	0.0
0.8602	237.791641957	0.0
0.8704	239.408648931	0.0
0.8806	241.017048668	0.0
0.8909	242.632529446	0.0
0.9011	244.223768649	0.0
0.9114	245.822013344	0.0
0.9216	247.396275105	1.0
0.9318	248.96215716	1.0
0.9421	250.53493307	0.0
0.9523	252.084108226	0.0
0.9626	253.640103685	1.0
0.9728	255.172750194	1.0
0.983	256.697238512	1.0
0.9933	258.228438447	0.0
1.0035	259.73666151	1.0
1.0138	261.251524581	1.0
1.024	262.743655927	1.0
1.0342	264.227844743	1.0
1.0445	265.718567756	1.0
1.0547	267.186921284	0.0
1.065	268.661739294	0.0
1.0752	270.114426486	0.0
1.0854	271.559381107	1.0
1.0957	273.010697195	0.0
1.1059	274.440235131	0.0
1.1162	275.876066661	1.0
1.1264	277.290352397	0.0
1.1366	278.69710997	0.0
1.1469	280.110060847	0.0
1.1571	281.501809272	1.0
1.1674	282.899684921	2.0
1.1776	284.276584335	1.0
1.1878	285.646154591	0.0
1.1981	287.021754431	2.0
1.2083	288.376712302	0.0
1.2186	289.737635426	2.0
1.2288	291.078136816	3.0
1.239	292.411502793	2.0
1.2493	293.750738964	4.0
1.2595	295.069878831	2.0
1.2698	296.394826261	1.0
1.28	297.699891801	0.0
1.2902	298.998010551	3.0
1.3005	300.301844318	6.0
1.3107	301.586113021	3.0
1.321	302.876035767	3.0
1.3312	304.146602195	3.0
1.3414	305.41040547	4.0
1.3517	306.679772687	3.0
1.3619	307.930092039	8.0
1.3722	309.185915969	3.0
1.3824	310.422895263	2.0
1.3926	311.653290185	8.0
1.4029	312.889101967	3.0
1.4131	314.106369411	4.0
1.4234	315.328995921	7.0
1.4336	316.533275947	3.0
1.4438	317.731145658	11.0
1.4541	318.934289037	10.0
1.4643	320.119378292	9.0
1.4746	321.309684947	6.0
1.4848	322.482130104	8.0
1.495	323.648334402	8.0
1.5053	324.819672958	11.0
1.5155	325.973434647	10.0
1.5258	327.132275816	10.0
1.536	328.273727651	10.0
1.5462	329.409103603	12.0
1.5565	330.54947809	14.0
1.5667	331.672740351	15.0
1.577	332.800947816	15.0
1.5872	333.912225631	17.0
1.5974	335.017588177	16.0
1.6077	336.127817123	20.0
1.6179	337.221386201	19.0
1.6282	338.319769758	25.0
1.6384	339.401671196	32.0
1.6486	340.477813734	20.0
1.6589	341.55869403	35.0
1.6691	342.623354857	31.0
1.6794	343.692702894	36.0
1.6896	344.746004513	39.0
1.6998	345.793699467	27.0
1.7101	346.846006938	52.0
1.7203	347.882523698	35.0
1.7306	348.923603762	51.0
1.7408	349.949061592	45.0
1.751	350.969060967	46.0
1.7613	351.993550929	30.0
1.7715	353.002667603	40.0
1.7818	354.016226952	62.0
1.792	355.014577037	81.0
1.8022	356.00761296	71.0
1.8125	357.005020762	62.0
1.8227	357.987461666	85.0
1.833	358.974227803	64.0
1.8432	359.94618673	81.0
1.8534	360.912971974	93.0
1.8637	361.884013527	87.0
1.8739	362.840483829	102.0
1.8842	363.801165027	93.0
1.8944	364.74743044	118.0
1.9046	365.688658936	112.0
1.9149	366.634031225	119.0
1.9251	367.565217452	128.0
1.9354	368.500503261	119.0
1.9456	369.421754362	140.0
1.9558	370.338101696	159.0
1.9661	371.258483284	183.0
1.9763	372.165053813	169.0
1.9866	373.075615554	231.0
1.9968	373.972513592	232.0
2.007	374.864637492	198.0
2.0173	375.760689001	225.0
2.0275	376.643294544	241.0
2.0378	377.529785792	250.0
2.048	378.402974533	267.0
2.0582	379.27151534	260.0
2.0685	380.143879931	292.0
2.0787	381.003153997	262.0
2.089	381.86621105	328.0
2.0992	382.716317245	299.0
2.1094	383.561898373	312.0
2.1197	384.411202204	351.0
2.1299	385.247761555	370.0
2.1402	386.088003891	375.0
2.1504	386.915637721	420.0
2.1606	387.738866104	390.0
2.1709	388.565718781	416.0
2.1811	389.380163875	452.0
2.1914	390.198194595	413.0
2.2016	391.003950113	457.0
2.2118	391.80541664	466.0
2.2221	392.610411654	528.0
2.2323	393.403327077	499.0
2.2426	394.199733341	486.0
2.2528	394.984188895	519.0
2.263	395.764468836	532.0
2.2733	396.548183989	528.0
2.2835	397.320138873	559.0
2.2938	398.095492318	585.0
2.304	398.859210967	547.0
2.3142	399.618864385	640.0
2.3245	400.381862206	619.0
2.3347	401.133410638	615.0
2.345	401.88826779	589.0
2.3552	402.63179771	594.0
2.3654	403.371369862	637.0
2.3757	404.114198009	668.0
2.3859	404.845879428	615.0
2.3962	405.580782103	646.0
2.4064	406.304656978	539.0
2.4166	407.024678709	545.0
2.4269	407.747870362	598.0
2.4371	408.460209949	593.0
2.4474	409.175685638	576.0
2.4576	409.880425045	551.0
2.4678	410.581413164	550.0
2.4781	411.28548741	546.0
2.4883	411.978996462	515.0
2.4986	412.675558714	505.0
2.5088	413.361668494	501.0
2.519	414.044126152	468.0
2.5293	414.729588355	425.0
2.5395	415.404764652	441.0
2.5498	416.082913439	406.0
2.56	416.750886063	380.0
2.5702	417.415303107	353.0
2.5805	418.082645272	400.0
2.5907	418.739973437	334.0
2.601	419.400195514	351.0
2.6112	420.050510434	333.0
2.6214	420.697363764	338.0
2.6317	421.347064891	324.0
2.6419	421.987016735	321.0
2.6522	422.629785991	316.0
2.6624	423.262909983	289.0
2.6726	423.892663893	328.0
2.6829	424.525190317	323.0
2.6931	425.14822518	327.0
2.7034	425.774002976	347.0
2.7136	426.39039048	282.0
2.7238	427.003496987	321.0
2.7341	427.619302719	314.0
2.7443	428.225867796	298.0
2.7546	428.835103299	338.0
2.7648	429.435196738	329.0
2.775	430.032095914	303.0
2.7853	430.631622962	382.0
2.7955	431.222153629	398.0
2.8058	431.815284129	373.0
2.816	432.399514235	346.0
2.8262	432.980634516	391.0
2.8365	433.564313202	390.0
2.8467	434.139233325	362.0
2.857	434.716684555	439.0
2.8672	435.28547067	454.0
2.8774	435.851229169	437.0
2.8877	436.419478441	450.0
2.8979	436.979200681	455.0
2.9082	437.541387119	458.0
2.9184	438.095137502	486.0
2.9286	438.645940304	495.0
2.9389	439.199168035	526.0
2.9491	439.744094145	514.0
2.9594	440.291419312	578.0
2.9696	440.830531429	533.0
2.9798	441.366773884	588.0
2.9901	441.905377166	555.0
3.0003	442.435898277	596.0
3.0106	442.968755027	555.0
3.0208	443.493615838	584.0
3.031	444.015682845	562.0
3.0413	444.540048271	601.0
3.0515	445.056545177	588.0
3.0618	445.575315981	618.0
3.072	446.086302215	621.0
3.0822	446.594568499	567.0
3.0925	447.105072444	626.0
3.1027	447.607915872	619.0
3.113	448.112973086	611.0
3.1232	448.610451516	629.0
3.1334	449.105281896	633.0
3.1437	449.602290785	621.0
3.1539	450.091841661	632.0
3.1642	450.583547802	536.0
3.1744	451.067875502	590.0
3.1846	451.549625154	589.0
3.1949	452.033495726	605.0
3.2051	452.510105435	601.0
3.2154	452.988813436	609.0
3.2256	453.460338044	578.0
3.2358	453.929352752	585.0
3.2461	454.400432315	586.0
3.2563	454.864442955	580.0
3.2666	455.330496419	572.0
3.2768	455.78955638	597.0
3.287	456.246172791	563.0
3.2973	456.704799473	536.0
3.3075	457.156544097	565.0
3.3178	457.610277543	546.0
3.328	458.057202358	551.0
3.3382	458.501748218	513.0
3.3485	458.948251208	574.0
3.3587	459.388054065	503.0
3.369	459.829793171	551.0
3.3792	460.26490363	515.0
3.3894	460.697698021	512.0
3.3997	461.132397805	552.0
3.4099	461.560574573	511.0
3.4202	461.990636406	511.0
3.4304	462.414244819	503.0
3.4406	462.835598388	526.0
3.4509	463.258806982	531.0
3.4611	463.675664995	509.0
3.4714	464.094358241	492.0
3.4816	464.506768661	514.0
3.4918	464.916983845	496.0
3.5021	465.329005016	503.0
3.5123	465.734843481	472.0
3.5226	466.142468666	474.0
3.5328	466.543977111	523.0
3.543	466.943348349	508.0
3.5533	467.344477834	547.0
3.5635	467.739588052	489.0
3.5738	468.136437757	498.0
3.584	468.527332417	538.0
3.5942	468.916146367	510.0
3.6045	469.306672085	474.0
3.6147	469.691337654	499.0
3.625	470.077696728	523.0
3.6352	470.458258176	463.0
3.6454	470.836793917	552.0
3.6557	471.216996176	508.0
3.6659	471.591493198	447.0
3.6762	471.967638957	527.0
3.6864	472.33814035	520.0
3.6966	472.706669585	531.0
3.7069	473.076821284	510.0
3.7171	473.441418562	490.0
3.7274	473.807620993	518.0
3.7376	474.168328266	497.0
3.7478	474.527115514	487.0
3.7581	474.887482337	512.0
3.7683	475.242441568	496.0
3.7786	475.598963522	472.0
3.7888	475.950135579	515.0
3.799	476.299438368	495.0
3.8093	476.650278975	517.0
3.8195	476.99585494	514.0
3.8298	477.342952316	471.0
3.84	477.68484122	474.0
3.8502	478.024910269	505.0
3.8605	478.366476485	469.0
3.8707	478.702917227	430.0
3.881	479.040839163	463.0
3.8912	479.373690312	450.0
3.9014	479.704769712	521.0
3.9117	480.037306702	474.0
3.9219	480.36485371	467.0
3.9322	480.693842756	462.0
3.9424	481.01789506	472.0
3.9526	481.340222452	470.0
3.9629	481.663968902	469.0
3.9731	481.982857279	466.0
3.9834	482.303149575	477.0
3.9936	482.618635629	469.0
4.0038	482.93244237	438.0
4.0141	483.247630656	444.0
4.0243	483.558089291	452.0
4.0346	483.869914732	479.0
4.0448	484.177060985	427.0
4.055	484.482572315	426.0
4.0653	484.78942867	472.0
4.0755	485.091680402	427.0
4.0858	485.395262808	430.0
4.096	485.694289719	426.0
4.1062	485.991724927	424.0
4.1165	486.290469604	447.0
4.1267	486.58473138	397.0
4.137	486.880288654	436.0
4.1472	487.171410857	435.0
4.1574	487.460983432	413.0
4.1677	487.751830861	414.0
4.1779	488.038313894	394.0
4.1882	488.326058179	404.0
4.1984	488.609484632	450.0
4.2086	488.891402422	440.0
4.2189	489.174561366	432.0
4.2291	489.453471284	438.0
4.2394	489.733609114	440.0
4.2496	490.009543253	422.0
4.2598	490.28400861	399.0
4.2701	490.559682311	368.0
4.2803	490.83121931	417.0
4.2906	491.10395176	419.0
4.3008	491.372591642	432.0
4.311	491.63980157	379.0
4.3213	491.908187899	419.0
4.3315	492.172546879	428.0
4.3418	492.438069708	418.0
4.352	492.699608156	420.0
4.3622	492.95975445	441.0
4.3725	493.221046048	405.0
4.3827	493.478416758	374.0
4.393	493.736920551	430.0
4.4032	493.99154529	451.0
4.4134	494.244814676	411.0
4.4237	494.49919909	401.0
4.4339	494.749766263	443.0
4.4442	495.001436567	412.0
4.4544	495.249330359	396.0
4.4646	495.495904626	439.0
4.4749	495.743564445	434.0
4.4851	495.987507932	431.0
4.4954	496.232525389	413.0
4.5056	496.473866165	428.0
4.5158	496.713922297	410.0
4.5261	496.955035285	432.0
4.5363	497.192530181	442.0
4.5466	497.431070658	398.0
4.5568	497.666031644	391.0
4.567	497.899741947	417.0
4.5773	498.134481168	435.0
4.5875	498.365697941	438.0
4.5978	498.597932654	425.0
4.608	498.8266825	424.0
4.6182	499.054214724	459.0
4.6285	499.282748667	415.0
4.6387	499.507853277	423.0
4.649	499.733948918	402.0
4.6592	499.956651814	398.0
4.6694	500.178169275	428.0
4.6797	500.400661975	388.0
4.6899	500.619815995	401.0
4.7002	500.839934849	413.0
4.7104	501.056750645	378.0
4.7206	501.272412342	371.0
4.7309	501.489023498	388.0
4.7411	501.702384232	399.0
4.7514	501.916684294	387.0
4.7616	502.127768613	366.0
4.7718	502.337729342	377.0
4.7821	502.548614432	378.0
4.7923	502.756335022	368.0
4.8026	502.964970111	385.0
4.8128	503.170474464	368.0
4.823	503.374884929	344.0
4.8333	503.580195319	365.0
4.8435	503.782424863	336.0
4.8538	503.985544731	314.0
4.864	504.185616623	323.0
4.8742	504.384623543	339.0
4.8845	504.5845066	333.0
4.8947	504.781390252	295.0
4.905	504.979140692	331.0
4.9152	505.173923729	301.0
4.9254	505.367669947	320.0
4.9357	505.56226914	283.0
4.9459	505.753948217	291.0
4.9562	505.946471169	294.0
4.9664	506.13610516	259.0
4.9766	506.324729741	293.0
4.9869	506.514184749	264.0
4.9971	506.700796833	245.0
5.0074	506.888230484	251.0
5.0176	507.072851544	221.0
5.0278	507.256489877	238.0
5.0381	507.440936684	215.0
5.0483	507.622615721	236.0
5.0586	507.805094606	214.0
5.0688	507.98483525	201.0
5.079	508.163619145	222.0
5.0893	508.343190143	218.0
5.0995	508.520066535	191.0
5.1098	508.697721632	204.0
5.12	508.872710874	172.0
5.1302	509.046768657	182.0
5.1405	509.221592736	167.0
5.1507	509.393793441	188.0
5.161	509.566752266	171.0
5.1712	509.737115706	143.0
5.1814	509.906572312	161.0
5.1917	510.076774956	169.0
5.2019	510.244423575	151.0
5.2122	510.412810272	150.0
5.2224	510.578670194	121.0
5.2326	510.743647252	145.0
5.2429	510.909350628	120.0
5.2531	511.072567493	113.0
5.2634	511.236502927	111.0
5.2736	511.397978379	113.0
5.2838	511.558594306	98.0
5.2941	511.719917351	104.0
5.3043	511.878819615	96.0
5.3146	512.038421453	90.0
5.3248	512.195628338	88.0
5.335	512.35199842	83.0
5.3453	512.509056927	77.0
5.3555	512.663758646	68.0
5.3658	512.819141445	80.0
5.376	512.972192602	72.0
5.3862	513.124429076	66.0
5.3965	513.277335777	55.0
5.4067	513.427947991	65.0
5.417	513.579223281	48.0
5.4272	513.728228565	59.0
5.4374	513.876440702	60.0
5.4477	514.025305349	57.0
5.4579	514.171936164	40.0
5.4682	514.319212526	45.0
5.4784	514.464278889	46.0
5.4886	514.608573072	37.0
5.4989	514.753502516	43.0
5.5091	514.896257178	35.0
5.5194	515.039640323	41.0
5.5296	515.18087189	38.0
5.5398	515.321351689	30.0
5.5501	515.462449956	40.0
5.5603	515.601430931	29.0
5.5706	515.741023775	22.0
5.5808	515.878521918	32.0
5.591	516.015288165	23.0
5.6013	516.152656531	21.0
5.6115	516.287963576	16.0
5.6218	516.423866315	30.0
5.632	516.557729725	28.0
5.6422	516.690880588	21.0
5.6525	516.824617652	28.0
5.6627	516.956347886	18.0
5.673	517.088658067	17.0
5.6832	517.218982828	22.0
5.6934	517.348613878	19.0
5.7037	517.478815634	22.0
5.7139	517.607063608	8.0
5.7242	517.7358762	16.0
5.7344	517.862755855	15.0
5.7446	517.988960138	15.0
5.7549	518.11572004	13.0
5.7651	518.240577808	14.0
5.7754	518.365985268	11.0
5.7856	518.489510889	14.0
5.7958	518.61237899	13.0
5.8061	518.735788022	8.0
5.8163	518.857345204	9.0
5.8266	518.979437546	8.0
5.8368	519.099697795	10.0
5.847	519.219317906	6.0
5.8573	519.339464648	10.0
5.8675	519.457808494	6.0
5.8778	519.576673352	10.0
5.888	519.693754549	10.0
5.8982	519.810212529	6.0
5.9085	519.92718322	8.0
5.9187	520.042398672	6.0
5.929	520.158121365	6.0
5.9392	520.272107547	4.0
5.9494	520.385486987	7.0
5.9597	520.499365584	6.0
5.9699	520.611535342	14.0
5.9802	520.724198932	3.0
5.9904	520.835171915	3.0
6.0006	520.945554195	10.0
6.0109	521.056422438	6.0
6.0211	521.165627014	4.0
6.0314	521.275312367	9.0
6.0416	521.383351804	4.0
6.0518	521.490816154	8.0
6.0621	521.598753619	7.0
6.0723	521.705071397	3.0
6.0826	521.811857243	1.0
6.0928	521.917040683	8.0
6.103	522.021664236	3.0
6.1133	522.126748399	0.0
6.1235	522.230255691	4.0
6.1338	522.334218677	4.0
6.144	522.436621616	3.0
6.1542	522.53847947	5.0
6.1645	522.640785757	3.0
6.1747	522.741556857	6.0
6.185	522.842771606	6.0
6.1952	522.942467546	8.0
6.2054	523.041632811	11.0
6.2157	523.141234654	6.0
6.2259	523.239341893	7.0
6.2362	523.337881052	2.0
6.2464	523.434941553	6.0
6.2566	523.531485407	8.0
6.2669	523.628454298	7.0
6.2771	523.723968094	3.0
6.2874	523.819902393	3.0
6.2976	523.914397122	3.0
6.3078	524.008388861	8.0
6.3181	524.102794401	1.0
6.3283	524.195783312	0.0
6.3386	524.28918161	6.0
6.3488	524.381178392	3.0
6.359	524.47268548	5.0
6.3693	524.564595431	0.0
6.3795	524.655126201	4.0
6.3898	524.746055536	6.0
6.4	524.835620404	4.0
6.4102	524.924708523	6.0
6.4205	525.014188856	10.0
6.4307	525.102326466	2.0
6.441	525.190852104	0.0
6.4512	525.278049345	5.0
6.4614	525.36478244	4.0
6.4717	525.451897381	5.0
6.4819	525.537705092	5.0
6.4922	525.623890576	5.0
6.5024	525.708782777	2.0
6.5126	525.793223103	2.0
6.5229	525.87803518	5.0
6.5331	525.961574584	1.0
6.5434	526.045481774	5.0
6.5536	526.128129869	1.0
6.5638	526.210338034	1.0
6.5741	526.292908123	7.0
6.5843	526.374239182	2.0
6.5946	526.455928304	3.0
6.6048	526.536391616	5.0
6.615	526.616426626	3.0
6.6253	526.696813993	2.0
6.6355	526.775995084	4.0
6.6458	526.855524773	3.0
6.656	526.933861056	4.0
6.6662	527.011780359	1.0
6.6765	527.090042704	6.0
6.6867	527.167130661	3.0
6.697	527.244558	6.0
6.7072	527.320823481	0.0
6.7174	527.396683005	1.0
6.7277	527.472876503	4.0
6.7379	527.547926657	4.0
6.7482	527.623307223	5.0
6.7584	527.697556643	6.0
6.7686	527.771410837	4.0
6.7789	527.845590178	1.0
6.7891	527.918656398	1.0
6.7994	527.992044295	2.0
6.8096	528.064330949	2.0
6.8198	528.136232824	2.0
6.8301	528.208451251	4.0
6.8403	528.279585982	2.0
6.8506	528.351033887	2.0
6.8608	528.421409659	3.0
6.871	528.491410825	3.0
6.8813	528.561720173	0.0
6.8915	528.630974474	5.0
6.9018	528.70053367	0.0
6.912	528.769049074	1.0
6.9222	528.837199775	2.0
6.9325	528.905650512	6.0
6.9427	528.973074092	1.0
6.953	529.040794506	1.0
6.9632	529.107498721	5.0
6.9734	529.173847874	6.0
6.9837	529.240489131	4.0
6.9939	529.306130383	2.0
7.0042	529.372060623	2.0
7.0144	529.437001528	1.0
7.0246	529.501596756	5.0
7.0349	529.566476366	3.0
7.0451	529.630382407	0.0
7.0554	529.694569796	1.0
7.0656	529.757794003	1.0
7.0758	529.820681671	3.0
7.0861	529.883846203	3.0
7.0963	529.946062902	5.0
7.1066	530.008553513	2.0
7.1168	530.070106402	2.0
7.127	530.131331648	0.0
7.1373	530.192826441	1.0
7.1475	530.253398455	3.0
7.1578	530.314237141	2.0
7.168	530.374162893	3.0
7.1782	530.433769664	2.0
7.1885	530.493638856	2.0
7.1987	530.552609663	2.0
7.209	530.611840091	1.0
7.2192	530.67018172	0.0
7.2294	530.728212799	2.0
7.2397	530.786499363	0.0
7.2499	530.84391129	2.0
7.2602	530.901575975	0.0
7.2704	530.958375356	2.0
7.2806	531.014872397	3.0
7.2909	531.071618169	1.0
7.3011	531.127512425	4.0
7.3114	531.183652757	1.0
7.3216	531.238950659	2.0
7.3318	531.293954214	1.0
7.3421	531.349199924	3.0
7.3523	531.403616627	1.0
7.3626	531.458272903	2.0
7.3728	531.512109018	1.0
7.383	531.565658566	1.0
7.3933	531.619443868	3.0
7.4035	531.672422078	3.0
7.4138	531.725633528	0.0
7.424	531.778046497	4.0
7.4342	531.830180475	5.0
7.4445	531.882543975	4.0
7.4547	531.934121718	2.0
7.465	531.985926535	1.0
7.4752	532.036953979	1.0
7.4854	532.087709807	2.0
7.4957	532.13868909	3.0
7.5059	532.188903388	1.0
7.5162	532.239338756	2.0
7.5264	532.289017301	2.0
7.5366	532.33843141	3.0
7.5469	532.388063067	1.0
7.5571	532.436949961	4.0
7.5674	532.486052082	2.0
7.5776	532.534417386	1.0
7.5878	532.582525245	4.0
7.5981	532.6308449	1.0
7.6083	532.67843948	1.0
7.6186	532.726243597	1.0
7.6288	532.773330376	1.0
7.639	532.820166514	2.0
7.6493	532.86720885	4.0
7.6595	532.913545278	0.0
7.6698	532.960085704	1.0
7.68	533.005927755	3.0
7.6902	533.05152579	1.0
7.7005	533.097324573	1.0
7.7107	533.142436108	2.0
7.721	533.187746249	2.0
7.7312	533.232376474	3.0
7.7414	533.276769136	4.0
7.7517	533.321357238	1.0
7.7619	533.36527626	4.0
7.7722	533.409388638	1.0
7.7824	533.452839074	2.0
7.7926	533.496058226	1.0
7.8029	533.539467651	1.0
7.8131	533.582225684	0.0
7.8234	533.625171961	3.0
7.8336	533.667473794	2.0
7.8438	533.709550458	2.0
7.8541	533.751812365	2.0
7.8643	533.793440099	2.0
7.8746	533.835251101	2.0
