TL-DOS Lehrstuhlversuch
detector=R1408305
job_number=2015-10-15-006
irradiation_dose [mSv]=1.0

[BEGIN DATA]
time [sec] 	 temperature [K] 	 photoncount 
0.0	165.148848525	0.0
0.0102	166.522050077	0.0
0.0205	167.903845831	1.0
0.0307	169.267421699	1.0
0.041	170.639531526	3.0
0.0512	171.993549183	0.0
0.0614	173.342836039	1.0
0.0717	174.700567425	2.0
0.0819	176.04039623	0.0
0.0922	177.388610373	2.0
0.1024	178.719047426	2.0
0.1126	180.044836066	2.0
0.1229	181.378922172	0.0
0.1331	182.695417476	0.0
0.1434	184.020152084	0.0
0.1536	185.327419196	0.0
0.1638	186.630118848	1.0
0.1741	187.940971464	1.0
0.1843	189.234539627	2.0
0.1946	190.536203604	2.0
0.2048	191.820704286	3.0
0.215	193.100717051	1.0
0.2253	194.388740794	3.0
0.2355	195.659781098	0.0
0.2458	196.938776225	0.0
0.256	198.200906961	1.0
0.2662	199.458627939	0.0
0.2765	200.724220381	0.0
0.2867	201.973125155	0.0
0.297	203.229846217	0.0
0.3072	204.469996586	1.0
0.3174	205.705813994	0.0
0.3277	206.949365782	0.0
0.3379	208.176520522	0.0
0.3482	209.411355428	0.0
0.3584	210.629908224	0.0
0.3686	211.844203519	0.0
0.3789	213.066098498	1.0
0.3891	214.271881988	0.0
0.3994	215.485211892	1.0
0.4096	216.682543243	1.0
0.4198	217.875691239	0.0
0.4301	219.076306567	0.0
0.4403	220.261090994	1.0
0.4506	221.453290411	0.0
0.4608	222.629769895	1.0
0.471	223.802138877	0.0
0.4813	224.981845147	0.0
0.4915	226.145996215	0.0
0.5018	227.317433138	0.0
0.512	228.473423896	0.0
0.5222	229.625375738	0.0
0.5325	230.784537087	0.0
0.5427	231.928414131	0.0
0.553	233.079450146	0.0
0.5632	234.215308995	0.0
0.5734	235.347199267	0.0
0.5837	236.486173489	0.0
0.5939	237.610129589	0.0
0.6042	238.741119983	0.0
0.6144	239.857197525	0.0
0.6246	240.969375605	0.0
0.6349	242.088514266	0.0
0.6451	243.192896349	0.0
0.6554	244.304190222	0.0
0.6656	245.400830956	0.0
0.6758	246.493640137	0.0
0.6861	247.593288679	1.0
0.6963	248.678437632	0.0
0.7066	249.770378006	0.0
0.7168	250.847920428	0.0
0.727	251.921698025	0.0
0.7373	253.002195873	0.0
0.7475	254.068446648	0.0
0.7578	255.141370568	0.0
0.768	256.200147281	0.0
0.7782	257.255224735	0.0
0.7885	258.316905405	0.0
0.7987	259.364587118	0.0
0.809	260.418825761	0.0
0.8192	261.459163576	0.0
0.8294	262.495866554	0.0
0.8397	263.539057752	0.0
0.8499	264.568493789	0.0
0.8602	265.604372566	0.0
0.8704	266.6265926	0.0
0.8806	267.6452411	0.0
0.8909	268.670264826	0.0
0.9011	269.68177294	0.0
0.9114	270.699611592	0.0
0.9216	271.704029372	0.0
0.9318	272.704937818	0.0
0.9421	273.712110463	0.0
0.9523	274.706002875	0.0
0.9626	275.706115576	0.0
0.9728	276.693041134	0.0
0.983	277.676518473	0.0
0.9933	278.666150919	0.0
1.0035	279.642734411	0.0
1.0138	280.625429863	0.0
1.024	281.595167831	0.0
1.0342	282.561517632	0.0
1.0445	283.533915346	0.0
1.0547	284.493491357	0.0
1.065	285.459072888	0.0
1.0752	286.411922592	1.0
1.0854	287.361443135	0.0
1.0957	288.316906265	0.0
1.1059	289.259770987	0.0
1.1162	290.208536639	0.0
1.1264	291.144792194	0.0
1.1366	292.077776565	1.0
1.1469	293.016600032	1.0
1.1571	293.943044495	0.0
1.1674	294.875287124	0.0
1.1776	295.79523752	0.0
1.1878	296.711973703	0.0
1.1981	297.634447291	1.0
1.2083	298.544757459	1.0
1.2186	299.460764816	0.0
1.2288	300.364694013	0.0
1.239	301.265464973	1.0
1.2493	302.171873421	0.0
1.2595	303.066330277	0.0
1.2698	303.966385104	1.0
1.28	304.854572117	0.0
1.2902	305.739655894	1.0
1.3005	306.630278979	0.0
1.3107	307.509158614	0.0
1.321	308.393538729	2.0
1.3312	309.266257712	0.0
1.3414	310.135927502	0.0
1.3517	311.011040132	0.0
1.3619	311.874613827	1.0
1.3722	312.74359221	1.0
1.3824	313.601112542	0.0
1.3926	314.455636784	3.0
1.4029	315.315509078	0.0
1.4131	316.164043391	0.0
1.4234	317.017888267	0.0
1.4336	317.860474638	0.0
1.4438	318.700117097	1.0
1.4541	319.545014469	0.0
1.4643	320.378771314	1.0
1.4746	321.217746238	2.0
1.4848	322.045658727	2.0
1.495	322.870678572	0.0
1.5053	323.700861816	0.0
1.5155	324.520098548	1.0
1.5258	325.344462484	0.0
1.536	326.15795664	0.0
1.5462	326.968608529	2.0
1.5565	327.784333894	0.0
1.5667	328.589303385	2.0
1.577	329.399310787	0.0
1.5872	330.198637711	0.0
1.5974	330.995171866	0.0
1.6077	331.796691141	2.0
1.6179	332.587641858	2.0
1.6282	333.38354275	2.0
1.6384	334.168949167	0.0
1.6486	334.951611452	3.0
1.6589	335.73917204	1.0
1.6691	336.516348125	1.0
1.6794	337.298388176	0.0
1.6896	338.070116516	2.0
1.6998	338.839148514	2.0
1.7101	339.612993509	4.0
1.7203	340.37663485	1.0
1.7306	341.145055451	5.0
1.7408	341.903343921	3.0
1.751	342.658983007	6.0
1.7613	343.419351271	2.0
1.7715	344.16969358	6.0
1.7818	344.924731917	1.0
1.792	345.669814577	2.0
1.8022	346.412293993	6.0
1.8125	347.159420226	5.0
1.8227	347.89669511	3.0
1.833	348.638584238	5.0
1.8432	349.370691071	10.0
1.8534	350.100239996	10.0
1.8637	350.834354812	7.0
1.8739	351.558789843	10.0
1.8842	352.287758761	9.0
1.8944	353.007115744	4.0
1.9046	353.723959366	8.0
1.9149	354.445289364	6.0
1.9251	355.157108151	9.0
1.9354	355.873381867	12.0
1.9456	356.580211043	6.0
1.9558	357.284570629	17.0
1.9661	357.993338459	13.0
1.9763	358.692760719	12.0
1.9866	359.396560323	14.0
1.9968	360.091079867	11.0
2.007	360.78317283	12.0
2.0173	361.479597266	15.0
2.0275	362.166838888	17.0
2.0378	362.858381621	17.0
2.048	363.540805909	8.0
2.0582	364.220845875	16.0
2.0685	364.90514188	13.0
2.0787	365.580414993	21.0
2.089	366.259914312	24.0
2.0992	366.930453986	17.0
2.1094	367.598650862	30.0
2.1197	368.271029657	23.0
2.1299	368.934542696	19.0
2.1402	369.60220834	34.0
2.1504	370.261070375	34.0
2.1606	370.917630411	22.0
2.1709	371.578299537	37.0
2.1811	372.230257307	47.0
2.1914	372.886295364	35.0
2.2016	373.533683128	33.0
2.2118	374.178808984	39.0
2.2221	374.827972368	47.0
2.2323	375.468576108	42.0
2.2426	376.113189074	45.0
2.2528	376.749302395	51.0
2.263	377.3831932	47.0
2.2733	378.021051219	53.0
2.2835	378.650498662	52.0
2.2938	379.283885509	56.0
2.304	379.908920735	62.0
2.3142	380.531772151	64.0
2.3245	381.15852169	63.0
2.3347	381.777007126	65.0
2.345	382.399363361	75.0
2.3552	383.01351342	84.0
2.3654	383.6255177	79.0
2.3757	384.241352218	80.0
2.3859	384.849066552	94.0
2.3962	385.460584276	85.0
2.4064	386.064038736	93.0
2.4166	386.665384787	82.0
2.4269	387.270494371	108.0
2.4371	387.867625187	90.0
2.4474	388.468493154	107.0
2.4576	389.061438283	134.0
2.4678	389.652311721	121.0
2.4781	390.246883148	108.0
2.4883	390.833614761	111.0
2.4986	391.424018441	149.0
2.5088	392.006637261	126.0
2.519	392.58722047	132.0
2.5293	393.171437266	125.0
2.5395	393.74795078	125.0
2.5498	394.328072412	154.0
2.56	394.900544758	152.0
2.5702	395.471016944	172.0
2.5805	396.045059438	150.0
2.5907	396.611532805	169.0
2.601	397.181551453	164.0
2.6112	397.74405403	159.0
2.6214	398.30459128	160.0
2.6317	398.86863666	165.0
2.6419	399.425244731	183.0
2.6522	399.985336342	174.0
2.6624	400.538042776	190.0
2.6726	401.08881811	157.0
2.6829	401.643040479	159.0
2.6931	402.189955061	179.0
2.7034	402.740292516	189.0
2.7136	403.28337341	202.0
2.7238	403.824556834	165.0
2.7341	404.369127262	159.0
2.7443	404.906517171	162.0
2.7546	405.447270342	170.0
2.7648	405.980893328	164.0
2.775	406.512651888	165.0
2.7853	407.047738466	146.0
2.7955	407.575769577	173.0
2.8058	408.107105377	187.0
2.816	408.631435166	149.0
2.8262	409.153932999	163.0
2.8365	409.679700891	188.0
2.8467	410.198536189	164.0
2.857	410.720618625	173.0
2.8672	411.235817061	157.0
2.8774	411.749215445	146.0
2.8877	412.26582694	124.0
2.8979	412.775626573	133.0
2.9082	413.288616793	152.0
2.9184	413.794842901	122.0
2.9286	414.299300306	123.0
2.9389	414.806914864	132.0
2.9491	415.307836191	110.0
2.9594	415.811892541	122.0
2.9696	416.309302576	100.0
2.9798	416.804974711	111.0
2.9901	417.303749017	121.0
3.0003	417.795946656	94.0
3.0106	418.29122472	99.0
3.0208	418.779972218	91.0
3.031	419.267012081	104.0
3.0413	419.75710009	91.0
3.0515	420.240725967	90.0
3.0618	420.727378622	97.0
3.072	421.207614443	79.0
3.0822	421.686172368	103.0
3.0925	422.167725354	86.0
3.1027	422.642928748	113.0
3.113	423.121106208	100.0
3.1232	423.592978585	99.0
3.1334	424.063202287	70.0
3.1437	424.536368891	87.0
3.1539	425.003296482	87.0
3.1642	425.473146345	98.0
3.1744	425.93680093	99.0
3.1846	426.398835552	68.0
3.1949	426.863761824	94.0
3.2051	427.322557737	97.0
3.2154	427.784225031	96.0
3.2256	428.239804939	93.0
3.2358	428.693793096	86.0
3.2461	429.150622544	107.0
3.2563	429.601428396	112.0
3.2666	430.055055623	98.0
3.2768	430.502701476	104.0
3.287	430.9487833	116.0
3.2973	431.397656933	110.0
3.3075	431.840611872	105.0
3.3178	432.286339051	107.0
3.328	432.726189024	113.0
3.3382	433.164502205	98.0
3.3485	433.605558575	122.0
3.3587	434.040799328	120.0
3.369	434.478764041	124.0
3.3792	434.910953901	138.0
3.3894	435.341633733	127.0
3.3997	435.775008981	140.0
3.4099	436.202669891	156.0
3.4202	436.633007323	150.0
3.4304	437.057670474	135.0
3.4406	437.480849894	145.0
3.4509	437.906677788	148.0
3.4611	438.326890862	152.0
3.4714	438.749733845	153.0
3.4816	439.167001365	155.0
3.4918	439.582810994	171.0
3.5021	440.001222974	155.0
3.5123	440.414117917	160.0
3.5226	440.829596969	153.0
3.5328	441.239597656	172.0
3.543	441.648165842	154.0
3.5533	442.059291058	166.0
3.5635	442.464995318	179.0
3.5738	442.873238683	173.0
3.584	443.276099091	157.0
3.5942	443.677551946	154.0
3.6045	444.081517299	178.0
3.6147	444.480156103	156.0
3.625	444.881289793	159.0
3.6352	445.277134273	134.0
3.6454	445.671595711	164.0
3.6557	446.068525892	159.0
3.6659	446.460222287	175.0
3.6762	446.85437012	149.0
3.6864	447.243320855	155.0
3.6966	447.630912635	187.0
3.7069	448.020930163	190.0
3.7171	448.405805054	178.0
3.7274	448.79308869	171.0
3.7376	449.175265736	170.0
3.7478	449.556107495	164.0
3.7581	449.939332756	171.0
3.7683	450.317504941	153.0
3.7786	450.698043922	172.0
3.7888	451.073565246	160.0
3.799	451.447774537	130.0
3.8093	451.824325821	139.0
3.8195	452.195912029	160.0
3.8298	452.569823815	146.0
3.84	452.938805328	145.0
3.8502	453.306497657	142.0
3.8605	453.676491193	151.0
3.8707	454.041606121	123.0
3.881	454.409006127	143.0
3.8912	454.771561721	148.0
3.9014	455.132850583	143.0
3.9117	455.496400576	150.0
3.9219	455.855156924	157.0
3.9322	456.216158553	136.0
3.9424	456.572400139	145.0
3.9526	456.927397052	133.0
3.9629	457.284615718	124.0
3.9731	457.637124222	131.0
3.9834	457.991838904	126.0
3.9936	458.341876441	128.0
4.0038	458.690690981	123.0
4.0141	459.041688583	128.0
4.0243	459.38805805	131.0
4.0346	459.736595275	134.0
4.0448	460.080536808	120.0
4.055	460.423276644	135.0
4.0653	460.768161522	131.0
4.0755	461.108498866	124.0
4.0858	461.450966216	128.0
4.096	461.788917909	118.0
4.1062	462.125688832	125.0
4.1165	462.464567441	123.0
4.1267	462.798977713	116.0
4.137	463.135480897	152.0
4.1472	463.467547064	130.0
4.1574	463.798453026	141.0
4.1677	464.131429968	131.0
4.1779	464.460016389	146.0
4.1882	464.790659274	125.0
4.1984	465.116942414	113.0
4.2086	465.442085554	126.0
4.2189	465.769263607	123.0
4.2291	466.092127603	125.0
4.2394	466.417012247	126.0
4.2496	466.737613073	85.0
4.2598	467.057093753	145.0
4.2701	467.378573906	132.0
4.2803	467.695815133	132.0
4.2906	468.015041818	133.0
4.3008	468.33005929	122.0
4.311	468.643976122	149.0
4.3213	468.959857607	122.0
4.3315	469.271573987	127.0
4.3418	469.585241249	131.0
4.352	469.894772601	107.0
4.3622	470.203222482	133.0
4.3725	470.513602801	125.0
4.3827	470.819890551	100.0
4.393	471.128095207	133.0
4.4032	471.432235983	136.0
4.4134	471.735314121	122.0
4.4237	472.040289078	141.0
4.4339	472.34124274	146.0
4.4442	472.644079924	127.0
4.4544	472.942924001	119.0
4.4646	473.240723947	126.0
4.4749	473.540387678	148.0
4.4851	473.836100146	130.0
4.4954	474.133663334	127.0
4.5056	474.427302956	140.0
4.5158	474.719916631	90.0
4.5261	475.014361633	137.0
4.5363	475.304924184	117.0
4.5466	475.597305224	108.0
4.5568	475.885831028	108.0
4.567	476.173348752	118.0
4.5773	476.46266591	123.0
4.5875	476.748168231	111.0
4.5978	477.035457372	105.0
4.608	477.318958417	120.0
4.6182	477.601468938	103.0
4.6285	477.885747555	107.0
4.6387	478.166277772	122.0
4.649	478.44856369	123.0
4.6592	478.727127484	108.0
4.6694	479.004718003	109.0
4.6797	479.284045827	118.0
4.6899	479.559690529	118.0
4.7002	479.837060358	111.0
4.7104	480.110772884	114.0
4.7206	480.383529085	107.0
4.7309	480.657992335	106.0
4.7411	480.928836606	124.0
4.7514	481.20137596	108.0
4.7616	481.470321704	100.0
4.7718	481.738327778	114.0
4.7821	482.008011172	125.0
4.7923	482.274138613	111.0
4.8026	482.541931617	129.0
4.8128	482.806193594	121.0
4.823	483.069532265	117.0
4.8333	483.334519046	117.0
4.8435	483.596011802	117.0
4.8538	483.859141114	113.0
4.864	484.118800893	102.0
4.8742	484.377553446	105.0
4.8845	484.637925407	114.0
4.8947	484.894864191	114.0
4.905	485.153411031	95.0
4.9152	485.408548761	103.0
4.9254	485.662795065	104.0
4.9357	485.918632573	117.0
4.9459	486.171096696	96.0
4.9562	486.425140868	104.0
4.9664	486.675835302	112.0
4.9766	486.925653834	104.0
4.9869	487.177035859	89.0
4.9971	487.425103247	99.0
5.0074	487.674723167	103.0
5.0176	487.921051686	109.0
5.0278	488.166519557	102.0
5.0381	488.413523692	91.0
5.0483	488.657270915	105.0
5.0586	488.902543634	108.0
5.0688	489.144582271	84.0
5.079	489.385775249	110.0
5.0893	489.628477736	91.0
5.0995	489.867980032	89.0
5.1098	490.108981257	85.0
5.12	490.346804721	100.0
5.1302	490.583797255	101.0
5.1405	490.822273009	95.0
5.1507	491.057604304	79.0
5.161	491.294408423	104.0
5.1712	491.528090125	104.0
5.1814	491.760955366	113.0
5.1917	491.995277997	100.0
5.2019	492.22651093	113.0
5.2122	492.459191038	89.0
5.2224	492.688803106	105.0
5.2326	492.917612932	98.0
5.2429	493.147854767	94.0
5.2531	493.375060713	107.0
5.2634	493.60368863	93.0
5.2736	493.829301938	90.0
5.2838	494.054126976	84.0
5.2941	494.280359084	111.0
5.3043	494.503608174	106.0
5.3146	494.728254471	116.0
5.3248	494.949938658	103.0
5.335	495.170848304	95.0
5.3453	495.393140515	109.0
5.3555	495.612501658	92.0
5.3658	495.833235676	96.0
5.376	496.05105917	118.0
5.3862	496.268121611	95.0
5.3965	496.48654254	120.0
5.4067	496.702083446	123.0
5.417	496.918973317	85.0
5.4272	497.133003354	99.0
5.4374	497.34628559	118.0
5.4477	497.560902656	101.0
5.4579	497.772689856	100.0
5.4682	497.985802528	113.0
5.4784	498.19610517	110.0
5.4886	498.405673036	88.0
5.4989	498.616552485	106.0
5.5091	498.824651349	105.0
5.5194	499.034052604	88.0
5.5296	499.240692765	105.0
5.5398	499.446610946	92.0
5.5501	499.65381787	98.0
5.5603	499.858292633	96.0
5.5706	500.064047105	86.0
5.5808	500.267088569	107.0
5.591	500.469420626	118.0
5.6013	500.673018982	93.0
5.6115	500.873932759	91.0
5.6218	501.076103958	91.0
5.632	501.275609397	119.0
5.6422	501.474417784	89.0
5.6525	501.674470415	116.0
5.6627	501.871885222	122.0
5.673	502.070535552	94.0
5.6832	502.266566546	108.0
5.6934	502.461912628	96.0
5.7037	502.658481287	93.0
5.7139	502.852458058	112.0
5.7242	503.047648835	90.0
5.7344	503.240265894	109.0
5.7446	503.432209969	112.0
5.7549	503.625355327	98.0
5.7651	503.815953938	99.0
5.7754	504.007745412	126.0
5.7856	504.19700799	112.0
5.7958	504.385609303	87.0
5.8061	504.575390981	95.0
5.8163	504.762670262	81.0
5.8266	504.951121633	70.0
5.8368	505.137088149	85.0
5.847	505.322404917	92.0
5.8573	505.508881492	93.0
5.8675	505.692899251	83.0
5.8778	505.878068688	96.0
5.888	506.060796544	82.0
5.8982	506.242885967	91.0
5.9085	506.426114999	79.0
5.9187	506.606928037	97.0
5.929	506.788872695	87.0
5.9392	506.968418293	86.0
5.9494	507.147336577	73.0
5.9597	507.327374623	89.0
5.9699	507.50503875	72.0
5.9802	507.68381479	86.0
5.9904	507.86023355	74.0
6.0006	508.036035921	76.0
6.0109	508.212938554	59.0
6.0211	508.387508609	58.0
6.0314	508.563171213	69.0
6.0416	508.73651759	85.0
6.0518	508.909258313	61.0
6.0621	509.083080135	76.0
6.0723	509.254610003	75.0
6.0826	509.427213393	54.0
6.0928	509.597540894	60.0
6.103	509.767273287	61.0
6.1133	509.938067953	54.0
6.1235	510.106610579	56.0
6.1338	510.276208032	58.0
6.144	510.44356923	49.0
6.1542	510.610345686	63.0
6.1645	510.778165914	57.0
6.1747	510.943773322	53.0
6.185	511.110417186	44.0
6.1952	511.274863742	58.0
6.2054	511.438735738	44.0
6.2157	511.603633328	51.0
6.2259	511.766356636	50.0
6.2362	511.93009835	50.0
6.2464	512.091681022	53.0
6.2566	512.25269914	52.0
6.2669	512.414724993	52.0
6.2771	512.574614428	48.0
6.2874	512.735504533	57.0
6.2976	512.894273196	48.0
6.3078	513.052487138	48.0
6.3181	513.211691264	49.0
6.3283	513.368796179	40.0
6.3386	513.526884337	42.0
6.3488	513.682887998	24.0
6.359	513.838346599	42.0
6.3693	513.99477814	29.0
6.3795	514.149147028	33.0
6.3898	514.304482035	33.0
6.4	514.457768849	37.0
6.4102	514.610520094	29.0
6.4205	514.764227334	46.0
6.4307	514.915907844	34.0
6.441	515.068537648	41.0
6.4512	515.219154928	33.0
6.4614	515.369245966	34.0
6.4717	515.520276351	22.0
6.4819	515.669315302	19.0
6.4922	515.819287014	24.0
6.5024	515.967281251	24.0
6.5126	516.114758411	27.0
6.5229	516.263158559	25.0
6.5331	516.409601953	20.0
6.5434	516.556961866	23.0
6.5536	516.702378741	27.0
6.5638	516.847287544	21.0
6.5741	516.993103261	25.0
6.5843	517.136996302	29.0
6.5946	517.281789899	24.0
6.6048	517.424674298	19.0
6.615	517.567059473	15.0
6.6253	517.710335767	17.0
6.6355	517.85172287	18.0
6.6458	517.993994845	14.0
6.656	518.134390871	15.0
6.6662	518.274296368	16.0
6.6765	518.415077465	17.0
6.6867	518.55400227	15.0
6.697	518.693796539	11.0
6.7072	518.831747528	17.0
6.7174	518.96921653	12.0
6.7277	519.107545884	11.0
6.7379	519.244051275	16.0
6.7482	519.381410986	14.0
6.7584	519.51695952	10.0
6.7686	519.65203446	12.0
6.7789	519.787954769	10.0
6.7891	519.922082879	9.0
6.7994	520.057050432	6.0
6.8096	520.190238349	9.0
6.8198	520.322960921	9.0
6.8301	520.456514138	15.0
6.8403	520.588306369	9.0
6.8506	520.720923424	7.0
6.8608	520.851791835	7.0
6.871	520.982203005	7.0
6.8813	521.113430355	6.0
6.8915	521.242927387	5.0
6.9018	521.373234877	10.0
6.912	521.501824178	5.0
6.9222	521.629964201	5.0
6.9325	521.758906189	7.0
6.9427	521.886147993	9.0
6.953	522.014186141	3.0
6.9632	522.140536022	11.0
6.9734	522.26644445	9.0
6.9837	522.393140877	5.0
6.9939	522.518166728	6.0
7.0042	522.643975056	2.0
7.0144	522.768124518	8.0
7.0246	522.891840214	5.0
7.0349	523.016330186	3.0
7.0451	523.139178677	8.0
7.0554	523.262796016	0.0
7.0656	523.38478338	1.0
7.0758	523.506344532	9.0
7.0861	523.628666476	6.0
7.0963	523.749375525	4.0
7.1066	523.870840033	8.0
7.1168	523.990702952	4.0
7.127	524.110147082	4.0
7.1373	524.230338755	2.0
7.1475	524.348945621	5.0
7.1578	524.46829479	4.0
7.168	524.586070262	0.0
7.1782	524.703434238	4.0
7.1885	524.821532739	0.0
7.1987	524.938074033	4.0
7.209	525.055344702	4.0
7.2192	525.17106908	4.0
7.2294	525.28638913	2.0
7.2397	525.402430911	2.0
7.2499	525.516942605	0.0
7.2602	525.632170972	3.0
7.2704	525.745879977	1.0
7.2806	525.859191695	0.0
7.2909	525.973212575	3.0
7.3011	526.085730015	1.0
7.3114	526.198951648	2.0
7.3216	526.310680378	4.0
7.3318	526.42201874	0.0
7.3421	526.534053914	3.0
7.3523	526.644611831	2.0
7.3626	526.755861676	2.0
7.3728	526.865644619	1.0
7.383	526.975043991	3.0
7.3933	527.085128041	0.0
7.4035	527.19376056	1.0
7.4138	527.303072957	1.0
7.424	527.410943999	0.0
7.4342	527.51843815	3.0
7.4445	527.626605054	0.0
7.4547	527.733345707	1.0
7.465	527.840754398	1.0
7.4752	527.946746834	0.0
7.4854	528.052368944	2.0
7.4957	528.158652091	5.0
7.5059	528.263533825	3.0
7.5162	528.369071963	1.0
7.5264	528.473218511	3.0
7.5366	528.577001181	2.0
7.5469	528.681433377	0.0
7.5571	528.784488565	3.0
7.5674	528.888188726	0.0
7.5776	528.990521532	0.0
7.5878	529.092496798	2.0
7.5981	529.195110277	0.0
7.6083	529.29637073	2.0
7.6186	529.398264923	2.0
7.6288	529.498815574	0.0
7.639	529.599014911	2.0
7.6493	529.699841347	0.0
7.6595	529.799338321	2.0
7.6698	529.899457997	1.0
7.68	529.99825753	2.0
7.6902	530.096711867	2.0
7.7005	530.195782382	1.0
7.7107	530.293546587	0.0
7.721	530.391922651	0.0
7.7312	530.489001562	1.0
7.7414	530.585741288	1.0
7.7517	530.683086462	0.0
7.7619	530.779148076	3.0
7.7722	530.875810892	1.0
7.7824	530.971199146	1.0
7.7926	531.066254123	0.0
7.8029	531.161904002	2.0
7.8131	531.256292676	2.0
7.8234	531.351272082	1.0
7.8336	531.444999122	1.0
7.8438	531.538398689	3.0
7.8541	531.632382799	0.0
7.8643	531.725127666	2.0
7.8746	531.818452978	1.0
7.8848	531.910547735	1.0
