TL-DOS Lehrstuhlversuch
detector=R1406804
job_number=2015-10-26-007
irradiation_dose [mSv]=10.0

[BEGIN DATA]
time [sec] 	 temperature [K] 	 photoncount 
0.0	61.291597046	0.0
0.0102	63.9627316674	0.0
0.0205	66.6449786012	1.0
0.0307	69.2863386853	2.0
0.041	71.9386872154	1.0
0.0512	74.5506046523	2.0
0.0614	77.1479950782	0.0
0.0717	79.7561910298	1.0
0.0819	82.3246289283	4.0
0.0922	84.9037519058	3.0
0.1024	87.4435600044	0.0
0.1126	89.9692421509	3.0
0.1229	92.5054315062	1.0
0.1331	95.0029604415	1.0
0.1434	97.5108794641	2.0
0.1536	99.9805690056	1.0
0.1638	102.436522582	2.0
0.1741	104.902693286	2.0
0.1843	107.3312709	0.0
0.1946	109.769951753	0.0
0.2048	112.171458558	4.0
0.215	114.559608617	1.0
0.2253	116.957693732	1.0
0.2355	119.31922362	2.0
0.2458	121.690577819	0.0
0.256	124.025784263	0.0
0.2662	126.348002713	0.0
0.2765	128.679881933	0.0
0.2867	130.976215136	0.0
0.297	133.282101423	1.0
0.3072	135.552837915	0.0
0.3174	137.810944984	1.0
0.3277	140.078446109	0.0
0.3379	142.311382565	0.0
0.3482	144.553608365	0.0
0.3584	146.761654781	0.0
0.3686	148.957420442	0.0
0.3789	151.162320812	0.0
0.3891	153.333610767	0.0
0.3994	155.513933608	0.0
0.4096	157.661020682	0.0
0.4198	159.796166048	0.0
0.4301	161.940193932	1.0
0.4403	164.051539311	1.0
0.4506	166.171668198	0.0
0.4608	168.259478886	0.0
0.471	170.335677549	0.0
0.4813	172.420513503	0.0
0.4915	174.473569247	0.0
0.5018	176.535166003	0.0
0.512	178.565336796	0.0
0.5222	180.584216146	0.0
0.5325	182.611494331	0.0
0.5427	184.607869687	0.0
0.553	186.612550258	1.0
0.5632	188.586672467	0.0
0.5734	190.549814966	0.0
0.5837	192.521124426	0.0
0.5939	194.462384217	0.0
0.6042	196.411719934	1.0
0.6144	198.331340938	1.0
0.6246	200.240285359	0.0
0.6349	202.157171268	0.0
0.6451	204.044837114	0.0
0.6554	205.940355928	0.0
0.6656	207.806980387	0.0
0.6758	209.663223019	0.0
0.6861	211.527187893	1.0
0.6963	213.362739406	1.0
0.7066	215.205927083	0.0
0.7168	217.021018116	1.0
0.727	218.826013942	0.0
0.7373	220.638518815	0.0
0.7475	222.423394758	0.0
0.7578	224.215696047	0.0
0.768	225.980676379	0.0
0.7782	227.73584021	1.0
0.7885	229.498305781	1.0
0.7987	231.233905195	1.0
0.809	232.976724959	0.0
0.8192	234.692978037	1.0
0.8294	236.399685626	0.0
0.8397	238.11349337	1.0
0.8499	239.801176674	2.0
0.8602	241.495880988	0.0
0.8704	243.164752066	0.0
0.8806	244.824341185	1.0
0.8909	246.490834438	0.0
0.9011	248.13192449	1.0
0.9114	249.779841718	0.0
0.9216	251.402638908	0.0
0.9318	253.016410395	0.0
0.9421	254.636895408	3.0
0.9523	256.232678546	0.0
0.9626	257.835100377	0.0
0.9728	259.413095679	2.0
0.983	260.982314458	1.0
0.9933	262.558061417	1.0
1.0035	264.109788467	1.0
1.0138	265.667970929	0.0
1.024	267.202401226	2.0
1.0342	268.7282973	3.0
1.0445	270.260541326	1.0
1.0547	271.76942858	1.0
1.065	273.284593026	0.0
1.0752	274.776661052	1.0
1.0854	276.260430467	1.0
1.0957	277.75037258	2.0
1.1059	279.217602751	1.0
1.1162	280.690936814	3.0
1.1264	282.1418121	0.0
1.1366	283.58461788	2.0
1.1469	285.033425944	2.0
1.1571	286.460149093	3.0
1.1674	287.892807619	3.0
1.1776	289.303627405	1.0
1.1878	290.706600468	5.0
1.1981	292.115410104	1.0
1.2083	293.502744541	4.0
1.2186	294.895850494	3.0
1.2288	296.267720625	4.0
1.239	297.631960664	0.0
1.2493	299.001876143	1.0
1.2595	300.350909304	8.0
1.2698	301.705554643	4.0
1.28	303.039550435	6.0
1.2902	304.366126785	5.0
1.3005	305.698221887	5.0
1.3107	307.010011189	7.0
1.321	308.327257726	8.0
1.3312	309.624424807	4.0
1.3414	310.91437728	3.0
1.3517	312.209696145	15.0
1.3619	313.485269807	14.0
1.3722	314.766150044	8.0
1.3824	316.027505173	12.0
1.3926	317.281844874	11.0
1.4029	318.541402813	11.0
1.4131	319.781760671	12.0
1.4234	321.027278601	16.0
1.4336	322.253810469	15.0
1.4438	323.473520589	12.0
1.4541	324.698304883	23.0
1.4643	325.904419169	19.0
1.4746	327.115551067	27.0
1.4848	328.308221068	29.0
1.495	329.494257655	25.0
1.5053	330.685228328	35.0
1.5155	331.858044431	36.0
1.5258	333.035739622	32.0
1.536	334.195482608	38.0
1.5462	335.348775314	54.0
1.5565	336.506865886	51.0
1.5667	337.647303098	57.0
1.577	338.792484695	53.0
1.5872	339.920209709	80.0
1.5974	341.041662521	61.0
1.6077	342.167780741	76.0
1.6179	343.276732971	65.0
1.6282	344.390298604	74.0
1.6384	345.486889592	84.0
1.6486	346.57738154	87.0
1.6589	347.672410095	100.0
1.6691	348.750746574	117.0
1.6794	349.833569092	123.0
1.6896	350.899885597	131.0
1.6998	351.960271443	140.0
1.7101	353.02506865	128.0
1.7203	354.073634613	163.0
1.7306	355.126562765	196.0
1.7408	356.163440599	196.0
1.751	357.194551507	200.0
1.7613	358.229951987	192.0
1.7715	359.249569333	235.0
1.7818	360.273428437	204.0
1.792	361.281680338	252.0
1.8022	362.284324525	247.0
1.8125	363.291139858	288.0
1.8227	364.282607795	278.0
1.833	365.278200385	322.0
1.8432	366.258616652	360.0
1.8534	367.233580021	363.0
1.8637	368.212599381	388.0
1.8739	369.176695053	444.0
1.8842	370.144801505	406.0
1.8944	371.098150619	463.0
1.9046	372.046197378	456.0
1.9149	372.998188151	565.0
1.9251	373.935667246	545.0
1.9354	374.877046392	620.0
1.9456	375.804075618	619.0
1.9558	376.725948876	624.0
1.9661	377.651657262	687.0
1.9763	378.563254606	746.0
1.9866	379.478644329	810.0
1.9968	380.380080302	824.0
2.007	381.276502651	904.0
2.0173	382.17665425	949.0
2.0275	383.063084381	956.0
2.0378	383.953202192	1017.0
2.048	384.829751486	1044.0
2.0582	385.701425572	1011.0
2.0685	386.576725949	1095.0
2.0787	387.43868368	1248.0
2.089	388.304227281	1272.0
2.0992	389.156576963	1227.0
2.1094	390.00418603	1324.0
2.1197	390.855321275	1267.0
2.1299	391.693482235	1342.0
2.1402	392.535130067	1397.0
2.1504	393.363948234	1500.0
2.1606	394.188156665	1501.0
2.1709	395.015793925	1517.0
2.1811	395.83081509	1577.0
2.1914	396.649226862	1602.0
2.2016	397.45516317	1587.0
2.2118	398.256617005	1704.0
2.2221	399.061405007	1779.0
2.2323	399.853925217	1679.0
2.2426	400.649742427	1701.0
2.2528	401.433428592	1767.0
2.263	402.212756037	1799.0
2.2733	402.995325599	1757.0
2.2835	403.765966056	1754.0
2.2938	404.539812491	1737.0
2.304	405.301862792	1680.0
2.3142	406.059674707	1718.0
2.3245	406.820639232	1741.0
2.3347	407.570003988	1710.0
2.345	408.322486212	1618.0
2.3552	409.063497968	1604.0
2.3654	409.800388351	1606.0
2.3757	410.540344306	1610.0
2.3859	411.269020738	1516.0
2.3962	412.00072857	1495.0
2.4064	412.721282609	1412.0
2.4166	413.437829057	1370.0
2.4269	414.157356444	1340.0
2.4371	414.86591571	1353.0
2.4474	415.577422686	1283.0
2.4576	416.278083801	1223.0
2.4678	416.974847966	1216.0
2.4781	417.674510773	1140.0
2.4883	418.363508264	1132.0
2.4986	419.055372087	1116.0
2.5088	419.736689478	1061.0
2.519	420.414217505	1074.0
2.5293	421.094564149	1005.0
2.5395	421.764539924	1107.0
2.5498	422.437302896	1015.0
2.56	423.099810602	1028.0
2.5702	423.75863356	1057.0
2.5805	424.420197318	986.0
2.5907	425.071676524	1069.0
2.601	425.72586598	1090.0
2.6112	426.370083294	1087.0
2.6214	427.010717588	1111.0
2.6317	427.654017015	1103.0
2.6419	428.287510303	1115.0
2.6522	428.923639015	1221.0
2.6624	429.550070896	1228.0
2.6726	430.173018676	1244.0
2.6829	430.79855801	1232.0
2.6931	431.414561931	1413.0
2.7034	432.033128519	1376.0
2.7136	432.642265982	1434.0
2.7238	433.248015534	1446.0
2.7341	433.856285093	1437.0
2.7443	434.45528249	1502.0
2.7546	435.056771805	1539.0
2.7648	435.649092313	1624.0
2.775	436.238118442	1696.0
2.7853	436.829595006	1644.0
2.7955	437.412055394	1707.0
2.8058	437.996938901	1740.0
2.816	438.572906733	1708.0
2.8262	439.145671137	1798.0
2.8365	439.720818324	1843.0
2.8467	440.287198252	1874.0
2.857	440.855934403	1927.0
2.8672	441.41600102	1918.0
2.8774	441.972952649	1962.0
2.8877	442.532221278	2040.0
2.8979	443.082964692	2001.0
2.9082	443.63599928	2011.0
2.9184	444.180603681	2081.0
2.9286	444.722179091	2004.0
2.9389	445.266007534	2112.0
2.9491	445.801546125	2139.0
2.9594	446.339312635	2080.0
2.9696	446.868881697	2166.0
2.9798	447.395505392	2091.0
2.9901	447.92431992	2119.0
3.0003	448.445073459	2034.0
3.0106	448.967993409	2181.0
3.0208	449.482942226	2061.0
3.031	449.995026991	2056.0
3.0413	450.509242103	2088.0
3.0515	451.015618774	2148.0
3.0618	451.524102047	2025.0
3.072	452.024834251	1983.0
3.0822	452.522781473	2047.0
3.0925	453.022800229	2012.0
3.1027	453.515196945	2001.0
3.113	454.009642105	2021.0
3.1232	454.496550186	1992.0
3.1334	454.980750172	1992.0
3.1437	455.466964502	1930.0
3.1539	455.94576722	1959.0
3.1642	456.426561828	1981.0
3.1744	456.90002744	1944.0
3.1846	457.370859722	1878.0
3.1949	457.843650735	1853.0
3.2051	458.309234755	1832.0
3.2154	458.776755674	1823.0
3.2256	459.237149934	1743.0
3.2358	459.694983564	1729.0
3.2461	460.15472185	1786.0
3.2563	460.607452112	1782.0
3.2666	461.062065798	1634.0
3.2768	461.509749578	1699.0
3.287	461.954943421	1759.0
3.2973	462.401989337	1634.0
3.3075	462.842220704	1662.0
3.3178	463.284283499	1695.0
3.328	463.719607707	1712.0
3.3382	464.15251072	1745.0
3.3485	464.587214674	1633.0
3.3587	465.015292215	1598.0
3.369	465.445150621	1675.0
3.3792	465.868456478	1667.0
3.3894	466.289407984	1620.0
3.3997	466.71211071	1698.0
3.4099	467.128369965	1740.0
3.4202	467.546360919	1689.0
3.4304	467.957980225	1629.0
3.4406	468.367310179	1653.0
3.4509	468.778343006	1658.0
3.4611	469.183110251	1754.0
3.4714	469.589561388	1692.0
3.4816	469.989816783	1724.0
3.4918	470.387846031	1758.0
3.5021	470.787531139	1694.0
3.5123	471.181123644	1697.0
3.5226	471.576353552	1736.0
3.5328	471.96555877	1758.0
3.543	472.352599299	1670.0
3.5533	472.741249973	1715.0
3.5635	473.123976249	1710.0
3.5738	473.508294722	1677.0
3.584	473.886754833	1749.0
3.5942	474.263110018	1685.0
3.6045	474.641030896	1743.0
3.6147	475.013190935	1720.0
3.625	475.386899213	1673.0
3.6352	475.754910868	1726.0
3.6454	476.120875708	1679.0
3.6557	476.488363015	1699.0
3.6659	476.850248527	1657.0
3.6762	477.213639536	1648.0
3.6864	477.571491192	1595.0
3.6966	477.927352542	1598.0
3.7069	478.284694327	1628.0
3.7171	478.63658897	1618.0
3.7274	478.989947547	1578.0
3.7376	479.3379197	1616.0
3.7478	479.683956495	1612.0
3.7581	480.031432853	1612.0
3.7683	480.373612454	1601.0
3.7786	480.717215571	1588.0
3.7888	481.055580973	1597.0
3.799	481.392064447	1550.0
3.8093	481.729947742	1517.0
3.8195	482.06268051	1573.0
3.8298	482.396797496	1504.0
3.84	482.725821367	1524.0
3.8502	483.053015268	1502.0
3.8605	483.381570342	1493.0
3.8707	483.705117086	1448.0
3.881	484.030009831	1437.0
3.8912	484.349950071	1482.0
3.9014	484.668110862	1484.0
3.9117	484.987595249	1483.0
3.9219	485.302209573	1442.0
3.9322	485.618132738	1458.0
3.9424	485.929240127	1410.0
3.9526	486.238617193	1433.0
3.9629	486.549281313	1492.0
3.9731	486.855209823	1421.0
3.9834	487.16241104	1435.0
3.9936	487.464929433	1373.0
4.0038	487.765765273	1413.0
4.0141	488.067852635	1406.0
4.0243	488.365335126	1374.0
4.0346	488.664055188	1341.0
4.0448	488.958221709	1295.0
4.055	489.250752128	1425.0
4.0653	489.544499518	1373.0
4.0755	489.833769167	1346.0
4.0858	490.12424222	1372.0
4.096	490.410287445	1306.0
4.1062	490.694741739	1317.0
4.1165	490.980379404	1329.0
4.1267	491.261662949	1297.0
4.137	491.544116675	1361.0
4.1472	491.822264816	1372.0
4.1574	492.098865948	1316.0
4.1677	492.376617781	1298.0
4.1779	492.650135701	1309.0
4.1882	492.924791497	1411.0
4.1984	493.195260575	1348.0
4.2086	493.464225353	1285.0
4.2189	493.734309064	1319.0
4.2291	494.000275752	1346.0
4.2394	494.267348901	1357.0
4.2496	494.530350918	1319.0
4.2598	494.791890166	1348.0
4.2701	495.054517455	1383.0
4.2803	495.313141384	1342.0
4.2906	495.572841226	1380.0
4.3008	495.828582332	1301.0
4.311	496.082901052	1330.0
4.3213	496.338277775	1330.0
4.3315	496.589761661	1318.0
4.3418	496.842291758	1291.0
4.352	497.09097241	1331.0
4.3622	497.338269945	1348.0
4.3725	497.586596275	1302.0
4.3827	497.83113724	1333.0
4.393	498.076695532	1335.0
4.4032	498.318510654	1279.0
4.4134	498.558980844	1347.0
4.4237	498.800451426	1312.0
4.4339	499.038241149	1332.0
4.4442	499.277020112	1319.0
4.4544	499.512159247	1261.0
4.4646	499.74599058	1286.0
4.4749	499.980794686	1293.0
4.4851	500.212019554	1272.0
4.4954	500.444206352	1329.0
4.5056	500.672853808	1254.0
4.5158	500.900229569	1241.0
4.5261	501.128551246	1288.0
4.5363	501.3533925	1217.0
4.5466	501.579169127	1192.0
4.5568	501.801504126	1230.0
4.567	502.022602539	1236.0
4.5773	502.244620753	1214.0
4.5875	502.463254631	1211.0
4.5978	502.682798058	1136.0
4.608	502.898994873	1165.0
4.6182	503.113989241	1136.0
4.6285	503.329878017	1136.0
4.6387	503.542475891	1151.0
4.649	503.755958203	1119.0
4.6592	503.966186297	1078.0
4.6694	504.175245139	1123.0
4.6797	504.385173697	1062.0
4.6899	504.591902208	988.0
4.7002	504.79949074	1045.0
4.7104	505.003914894	980.0
4.7206	505.207202079	968.0
4.7309	505.411334968	935.0
4.7411	505.612356156	896.0
4.7514	505.814213621	977.0
4.7616	506.012994071	888.0
4.7718	506.21066894	877.0
4.7821	506.409166166	837.0
4.7923	506.604637598	846.0
4.8026	506.800922219	882.0
4.8128	506.994214775	817.0
4.823	507.186432272	839.0
4.8333	507.379449423	774.0
4.8435	507.569524315	811.0
4.8538	507.760389947	731.0
4.864	507.948346117	698.0
4.8742	508.135256909	658.0
4.8845	508.322945277	668.0
4.8947	508.507772617	633.0
4.905	508.693368865	649.0
4.9152	508.876135976	590.0
4.9254	509.057886569	549.0
4.9357	509.240393271	537.0
4.9459	509.420117931	545.0
4.9562	509.600590272	532.0
4.9664	509.778311582	524.0
4.9766	509.955044438	469.0
4.9869	510.132512528	505.0
4.9971	510.307275383	441.0
5.0074	510.482765277	423.0
5.0176	510.655580089	441.0
5.0278	510.827433737	450.0
5.0381	511.000002321	417.0
5.0483	511.169940354	385.0
5.0586	511.340585355	351.0
5.0688	511.508629128	372.0
5.079	511.675738271	377.0
5.0893	511.843542614	328.0
5.0995	512.008789029	321.0
5.1098	512.174722894	305.0
5.12	512.338127345	301.0
5.1302	512.50062297	274.0
5.1405	512.663794601	258.0
5.1507	512.824478923	276.0
5.161	512.985831717	256.0
5.1712	513.144724927	256.0
5.1814	513.302734403	227.0
5.1917	513.461401221	231.0
5.2019	513.6176494	201.0
5.2122	513.774547595	181.0
5.2224	513.929054111	183.0
5.2326	514.08270129	164.0
5.2429	514.236987664	188.0
5.2531	514.388922172	180.0
5.2634	514.54148875	147.0
5.2736	514.691729679	172.0
5.2838	514.841134994	126.0
5.2941	514.991161858	154.0
5.3043	515.138901786	153.0
5.3146	515.287256334	117.0
5.3248	515.433349439	130.0
5.335	515.57863	105.0
5.3453	515.724514949	96.0
5.3555	515.868176101	114.0
5.3658	516.012434903	109.0
5.376	516.154494696	89.0
5.3862	516.295764378	82.0
5.3965	516.437621763	100.0
5.4067	516.577316743	74.0
5.417	516.717592875	70.0
5.4272	516.855730707	90.0
5.4374	516.993100242	57.0
5.4477	517.131041254	60.0
5.4579	517.266879561	69.0
5.4682	517.403282975	64.0
5.4784	517.537607123	58.0
5.4886	517.671184185	55.0
5.4989	517.805316946	51.0
5.5091	517.937405054	59.0
5.5194	518.070042668	35.0
5.5296	518.20065842	50.0
5.5398	518.33054771	37.0
5.5501	518.460977359	39.0
5.5603	518.589418803	38.0
5.5706	518.718394582	30.0
5.5808	518.845404318	43.0
5.591	518.971707648	44.0
5.6013	519.098536419	46.0
5.6115	519.223431875	23.0
5.6218	519.348846914	37.0
5.632	519.472350189	22.0
5.6422	519.59516656	35.0
5.6525	519.718493866	38.0
5.6627	519.839941231	19.0
5.673	519.961893835	35.0
5.6832	520.081987453	13.0
5.6934	520.201413133	27.0
5.7037	520.32133564	14.0
5.7139	520.439430109	29.0
5.7242	520.558015867	22.0
5.7344	520.674793963	24.0
5.7446	520.790922561	21.0
5.7549	520.90753427	17.0
5.7651	521.022368408	18.0
5.7754	521.137680272	13.0
5.7856	521.25123438	23.0
5.7958	521.36415692	20.0
5.8061	521.477549235	22.0
5.8163	521.589213053	30.0
5.8266	521.701341409	22.0
5.8368	521.811760535	14.0
5.847	521.921565531	19.0
5.8573	522.031827331	19.0
5.8675	522.140408355	15.0
5.8778	522.249441092	18.0
5.888	522.356811787	25.0
5.8982	522.463585306	12.0
5.9085	522.570803019	12.0
5.9187	522.676386358	11.0
5.929	522.782408939	24.0
5.9392	522.886815364	16.0
5.9494	522.990641099	10.0
5.9597	523.094898765	9.0
5.9699	523.197567178	14.0
5.9802	523.300662707	15.0
5.9904	523.402186699	9.0
6.0006	523.503146032	9.0
6.0109	523.604525371	11.0
6.0211	523.704359334	16.0
6.0314	523.80460862	20.0
6.0416	523.903329756	18.0
6.0518	524.001501823	13.0
6.0621	524.1000823	12.0
6.0723	524.197160064	12.0
6.0826	524.294641687	10.0
6.0928	524.390637348	12.0
6.103	524.486099098	9.0
6.1133	524.581957983	12.0
6.1235	524.676355643	15.0
6.1338	524.77114601	7.0
6.144	524.864491441	11.0
6.1542	524.9573177	8.0
6.1645	525.050530131	13.0
6.1747	525.142321677	1.0
6.185	525.23449509	12.0
6.1952	525.325263456	12.0
6.2054	525.415526986	6.0
6.2157	525.506166025	11.0
6.2259	525.595423407	4.0
6.2362	525.685052113	10.0
6.2464	525.773314563	9.0
6.2566	525.861086113	9.0
6.2669	525.949222806	8.0
6.2771	526.036015987	7.0
6.2874	526.12317024	12.0
6.2976	526.208995956	14.0
6.3078	526.294344326	15.0
6.3181	526.380047757	5.0
6.3283	526.464444767	4.0
6.3386	526.549192882	13.0
6.3488	526.632649138	5.0
6.359	526.715641225	6.0
6.3693	526.798978572	4.0
6.3795	526.881045565	8.0
6.3898	526.963453969	10.0
6.4	527.04460618	13.0
6.4102	527.125307037	16.0
6.4205	527.206343621	2.0
6.4307	527.286144924	12.0
6.441	527.366278211	7.0
6.4512	527.445189987	8.0
6.4614	527.523662869	10.0
6.4717	527.602462211	4.0
6.4819	527.680060374	8.0
6.4922	527.757981356	11.0
6.5024	527.83471455	12.0
6.5126	527.911020967	7.0
6.5229	527.987644831	12.0
6.5331	528.063100678	6.0
6.5434	528.138870432	5.0
6.5536	528.21348519	7.0
6.5638	528.287684954	11.0
6.5741	528.3621934	10.0
6.5843	528.435566076	13.0
6.5946	528.509243993	6.0
6.6048	528.5817988	2.0
6.615	528.65395007	8.0
6.6253	528.7264015	8.0
6.6355	528.797748517	3.0
6.6458	528.869392347	5.0
6.656	528.939944075	7.0
6.6662	529.010103406	12.0
6.6765	529.08055461	5.0
6.6867	529.149931891	5.0
6.697	529.219597792	12.0
6.7072	529.28820174	8.0
6.7174	529.356424126	3.0
6.7277	529.424930326	5.0
6.7379	529.492392252	7.0
6.7482	529.560134829	8.0
6.7584	529.626844772	9.0
6.7686	529.693183686	8.0
6.7789	529.75979858	5.0
6.7891	529.82539803	8.0
6.7994	529.891270382	6.0
6.8096	529.956138609	6.0
6.8198	530.020646051	4.0
6.8301	530.085421853	11.0
6.8403	530.149210245	6.0
6.8506	530.213264005	10.0
6.8608	530.276341362	9.0
6.871	530.339067894	5.0
6.8813	530.402055378	3.0
6.8915	530.464082711	8.0
6.9018	530.526368088	15.0
6.912	530.587704016	4.0
6.9222	530.648698806	6.0
6.9325	530.709947343	4.0
6.9427	530.770262237	9.0
6.953	530.83082805	8.0
6.9632	530.890470627	5.0
6.9734	530.949781484	5.0
6.9837	531.009339082	3.0
6.9939	531.067988814	17.0
7.0042	531.126882537	9.0
7.0144	531.184878513	3.0
7.0246	531.242551926	6.0
7.0349	531.300465269	2.0
7.0451	531.35749581	6.0
7.0554	531.414763606	6.0
7.0656	531.47115844	3.0
7.0758	531.527239616	10.0
7.0861	531.583554098	7.0
7.0963	531.63901015	9.0
7.1066	531.694696907	4.0
7.1168	531.749534803	8.0
7.127	531.8040677	5.0
7.1373	531.858827462	3.0
7.1475	531.912752494	3.0
7.1578	531.966901861	4.0
7.168	532.020225802	2.0
7.1782	532.073253165	4.0
7.1885	532.12650113	2.0
7.1987	532.178937409	7.0
7.209	532.231591831	4.0
7.2192	532.283443614	4.0
7.2294	532.335007007	5.0
7.2397	532.386784912	7.0
7.2499	532.43777354	6.0
7.2602	532.488974288	3.0
7.2704	532.539394557	6.0
7.2806	532.589534397	7.0
7.2909	532.639882827	5.0
7.3011	532.68946377	7.0
7.3114	532.739250977	8.0
7.3216	532.788279253	2.0
7.3318	532.837034842	6.0
7.3421	532.885993261	3.0
7.3523	532.934205383	6.0
7.3626	532.982618074	7.0
7.3728	533.030292785	7.0
7.383	533.077702339	9.0
7.3933	533.125309124	8.0
7.4035	533.172190214	5.0
7.4138	533.219266336	10.0
7.424	533.265624853	3.0
7.4342	533.311725532	5.0
7.4445	533.358017997	7.0
7.4547	533.403604803	3.0
7.465	533.449381256	8.0
7.4752	533.494459916	3.0
7.4854	533.539287856	5.0
7.4957	533.584302287	6.0
7.5059	533.62863054	3.0
7.5162	533.673143206	4.0
7.5264	533.716977342	5.0
7.5366	533.760567681	3.0
7.5469	533.804339362	2.0
7.5571	533.847443809	3.0
7.5674	533.890727577	7.0
7.5776	533.933351548	5.0
7.5878	533.975738453	5.0
7.5981	534.018301693	10.0
7.6083	534.06021612	6.0
7.6186	534.102304918	4.0
7.6288	534.143752134	3.0
7.639	534.184968829	2.0
7.6493	534.226356991	0.0
7.6595	534.267114253	4.0
7.6698	534.308041071	8.0
7.68	534.34834402	7.0
7.6902	534.388422812	2.0
7.7005	534.428668337	2.0
7.7107	534.46830038	3.0
7.721	534.508097297	4.0
7.7312	534.54728757	6.0
7.7414	534.586259874	4.0
