TL-DOS Lehrstuhlversuch
detector=R1407504
job_number=2015-11-04-003
irradiation_dose [mSv]=0.08

[BEGIN DATA]
time [sec] 	 temperature [K] 	 photoncount 
0.0	136.108402671	0.0
0.0102	137.729163789	0.0
0.0205	139.359431726	0.0
0.0307	140.967575405	1.0
0.041	142.585151893	2.0
0.0512	144.180776359	0.0
0.0614	145.770208111	1.0
0.0717	147.368962914	1.0
0.0819	148.946021122	3.0
0.0922	150.532329803	3.0
0.1024	152.097110795	0.0
0.1126	153.655818777	0.0
0.1229	155.223669597	0.0
0.1331	156.770243217	1.0
0.1434	158.325888498	1.0
0.1536	159.860422221	3.0
0.1638	161.389000327	1.0
0.1741	162.926544537	2.0
0.1843	164.443222838	3.0
0.1946	165.968797444	1.0
0.2048	167.473668579	1.0
0.215	168.972699218	1.0
0.2253	170.480522648	2.0
0.2355	171.967883506	1.0
0.2458	173.463968704	0.0
0.256	174.93975063	0.0
0.2662	176.409804957	0.0
0.2765	177.888482109	0.0
0.2867	179.347092233	0.0
0.297	180.814258054	0.0
0.3072	182.261513065	0.0
0.3174	183.703151193	0.0
0.3277	185.153245467	0.0
0.3379	186.583660608	0.0
0.3482	188.022466064	0.0
0.3584	189.441745588	0.0
0.3686	190.855516803	0.0
0.3789	192.277580706	0.0
0.3891	193.680345875	0.0
0.3994	195.091339174	0.0
0.4096	196.483183977	0.0
0.4198	197.869626947	0.0
0.4301	199.264202307	0.0
0.4403	200.639851978	0.0
0.4506	202.02357073	0.0
0.4608	203.388511127	0.0
0.471	204.748154108	0.0
0.4813	206.11577228	0.0
0.4915	207.464830597	0.0
0.5018	208.821802018	0.0
0.512	210.160358072	0.0
0.5222	211.493719109	0.0
0.5325	212.834901175	0.0
0.5427	214.15788215	0.0
0.553	215.488623269	0.0
0.5632	216.801304989	1.0
0.5734	218.108892113	0.0
0.5837	219.424149085	1.0
0.5939	220.721556794	0.0
0.6042	222.026574642	0.0
0.6144	223.313882181	0.0
0.6246	224.596193602	1.0
0.6349	225.886026613	1.0
0.6451	227.158355387	0.0
0.6554	228.438147197	0.0
0.6656	229.700571038	0.0
0.6758	230.958095336	0.0
0.6861	232.222995833	0.0
0.6963	233.470730449	0.0
0.7066	234.72578384	0.0
0.7168	235.963804986	0.0
0.727	237.197021298	1.0
0.7373	238.437471225	1.0
0.7475	239.66108709	0.0
0.7578	240.891880257	0.0
0.768	242.105970413	0.0
0.7782	243.315348612	0.0
0.7885	244.531820601	0.0
0.7987	245.73178393	0.0
0.809	246.938785825	0.0
0.8192	248.129407577	0.0
0.8294	249.315408455	1.0
0.8397	250.508366	0.0
0.8499	251.685133998	0.0
0.8602	252.868804505	0.0
0.8704	254.036411499	0.0
0.8806	255.199486941	0.0
0.8909	256.369384577	0.0
0.9011	257.52340561	0.0
0.9114	258.684195727	1.0
0.9216	259.829232839	0.0
0.9318	260.969825993	0.0
0.9421	262.117109468	0.0
0.9523	263.248823236	0.0
0.9626	264.387175242	0.0
0.9728	265.510078748	0.0
0.983	266.628624199	0.0
0.9933	267.753730646	0.0
1.0035	268.863568349	0.0
1.0138	269.979915972	0.0
1.024	271.081113717	1.0
1.0342	272.178037646	0.0
1.0445	273.281395748	0.0
1.0547	274.369780251	0.0
1.065	275.464548838	1.0
1.0752	276.544460393	0.0
1.0854	277.620180746	0.0
1.0957	278.702210899	0.0
1.1059	279.769556894	0.0
1.1162	280.843163567	0.0
1.1264	281.902200395	0.0
1.1366	282.957127038	0.0
1.1469	284.018241513	0.0
1.1571	285.064955673	1.0
1.1674	286.117809493	0.0
1.1776	287.156375105	0.0
1.1878	288.190909981	0.0
1.1981	289.231513077	0.0
1.2083	290.257994217	0.0
1.2186	291.290496338	0.0
1.2288	292.308986441	1.0
1.239	293.323523724	0.0
1.2493	294.344011927	0.0
1.2595	295.350651153	0.0
1.2698	296.363194973	0.0
1.28	297.361997629	0.0
1.2902	298.356923872	1.0
1.3005	299.357686004	0.0
1.3107	300.34486686	0.0
1.321	301.337838175	0.0
1.3312	302.317333941	0.0
1.3414	303.293028227	0.0
1.3517	304.274445593	0.0
1.3619	305.242544211	0.0
1.3722	306.216321356	3.0
1.3824	307.176883438	1.0
1.3926	308.13371752	0.0
1.4029	309.096164056	0.0
1.4131	310.045549295	1.0
1.4234	311.000503296	0.0
1.4336	311.94249768	0.0
1.4438	312.880836127	2.0
1.4541	313.82467854	1.0
1.4643	314.75571213	0.0
1.4746	315.692206838	0.0
1.4848	316.615992439	3.0
1.495	317.536192773	1.0
1.5053	318.46179068	1.0
1.5155	319.37482736	2.0
1.5258	320.293219594	0.0
1.536	321.199148389	1.0
1.5462	322.101561219	1.0
1.5565	323.009267288	0.0
1.5667	323.904654939	0.0
1.577	324.805294621	3.0
1.5872	325.693711781	0.0
1.5974	326.578680942	1.0
1.6077	327.468841022	0.0
1.6179	328.346920799	2.0
1.6282	329.230151086	2.0
1.6384	330.101395113	2.0
1.6486	330.96925779	1.0
1.6589	331.842211046	0.0
1.6691	332.703317512	1.0
1.6794	333.569474928	0.0
1.6896	334.423877779	0.0
1.6998	335.274964641	0.0
1.7101	336.131043682	0.0
1.7203	336.975504931	2.0
1.7306	337.824919495	1.0
1.7408	338.66280671	1.0
1.751	339.497442035	0.0
1.7613	340.336973039	0.0
1.7715	341.165110824	0.0
1.7818	341.998106176	1.0
1.792	342.819797004	1.0
1.8022	343.6382988	1.0
1.8125	344.461601642	2.0
1.8227	345.273731496	3.0
1.833	346.09062502	1.0
1.8432	346.896432536	1.0
1.8534	347.699112665	2.0
1.8637	348.506501036	0.0
1.8739	349.302932392	1.0
1.8842	350.104035337	1.0
1.8944	350.894266568	4.0
1.9046	351.681430863	1.0
1.9149	352.473212389	1.0
1.9251	353.254248701	2.0
1.9354	354.0398663	3.0
1.9456	354.814822334	1.0
1.9558	355.586770717	3.0
1.9661	356.36324708	1.0
1.9763	357.129185934	2.0
1.9866	357.899617518	3.0
1.9968	358.659593626	1.0
2.007	359.416620221	3.0
2.0173	360.17808727	0.0
2.0275	360.9292205	5.0
2.0378	361.684759616	2.0
2.048	362.430045361	2.0
2.0582	363.172438607	5.0
2.0685	363.919186472	4.0
2.0787	364.655800272	3.0
2.089	365.396734791	3.0
2.0992	366.127614137	2.0
2.1094	366.855656897	6.0
2.1197	367.587970101	2.0
2.1299	368.310345132	5.0
2.1402	369.036957362	6.0
2.1504	369.753708786	6.0
2.1606	370.467678455	6.0
2.1709	371.185836021	6.0
2.1811	371.894247518	4.0
2.1914	372.606814309	7.0
2.2016	373.309710904	10.0
2.2118	374.009879516	8.0
2.2221	374.714155071	4.0
2.2323	375.408872951	3.0
2.2426	376.107665802	7.0
2.2528	376.796975383	5.0
2.263	377.483609711	6.0
2.2733	378.174271597	7.0
2.2835	378.855560557	9.0
2.2938	379.540845719	7.0
2.304	380.216830922	10.0
2.3142	380.890192587	9.0
2.3245	381.567503955	6.0
2.3347	382.235623576	3.0
2.345	382.907662153	11.0
2.3552	383.57058054	3.0
2.3654	384.230926101	6.0
2.3757	384.895145018	8.0
2.3859	385.550349864	10.0
2.3962	386.209397914	10.0
2.4064	386.859502066	13.0
2.4166	387.507083125	10.0
2.4269	388.158462668	13.0
2.4371	388.801002383	8.0
2.4474	389.447311011	14.0
2.4576	390.084848629	13.0
2.4678	390.719911924	9.0
2.4781	391.358700279	11.0
2.4883	391.98881968	14.0
2.4986	392.622635141	11.0
2.5088	393.247849135	8.0
2.519	393.870636635	14.0
2.5293	394.49707719	12.0
2.5395	395.115016362	13.0
2.5498	395.736580149	16.0
2.56	396.349708735	6.0
2.5702	396.960457733	8.0
2.5805	397.574789171	14.0
2.5907	398.180783558	8.0
2.601	398.790332496	23.0
2.6112	399.391609286	11.0
2.6214	399.990552485	8.0
2.6317	400.593008876	8.0
2.6419	401.187289371	9.0
2.6522	401.785055708	14.0
2.6624	402.374709798	14.0
2.6726	402.962075405	18.0
2.6829	403.552886293	9.0
2.6931	404.135679327	17.0
2.7034	404.72189082	11.0
2.7136	405.300146877	8.0
2.7238	405.876158687	11.0
2.7341	406.455549181	11.0
2.7443	407.027076806	10.0
2.7546	407.601956812	13.0
2.7648	408.16903516	17.0
2.775	408.733912642	10.0
2.7853	409.302103499	10.0
2.7955	409.862583475	8.0
2.8058	410.426351032	17.0
2.816	410.982467736	12.0
2.8262	411.536426118	10.0
2.8365	412.093633826	16.0
2.8467	412.643279706	14.0
2.857	413.196149617	13.0
2.8672	413.741516567	15.0
2.8774	414.284766915	12.0
2.8877	414.83120378	10.0
2.8979	415.370224986	9.0
2.9082	415.912407903	11.0
2.9184	416.447232891	10.0
2.9286	416.979982192	6.0
2.9389	417.515856414	11.0
2.9491	418.044458323	13.0
2.9594	418.576160825	10.0
2.9696	419.100647629	5.0
2.9798	419.623098868	9.0
2.9901	420.148614623	12.0
3.0003	420.66699864	13.0
3.0106	421.188423315	12.0
3.0208	421.702771771	10.0
3.031	422.21512401	13.0
3.0413	422.730481529	12.0
3.0515	423.238845164	13.0
3.0618	423.750190684	8.0
3.072	424.254596767	13.0
3.0822	424.75704522	11.0
3.0925	425.26244086	11.0
3.1027	425.76097781	9.0
3.113	426.262439003	14.0
3.1232	426.7570949	13.0
3.1334	427.249831008	15.0
3.1437	427.745457334	9.0
3.1539	428.234357548	7.0
3.1642	428.726125479	8.0
3.1744	429.211219661	15.0
3.1846	429.694431163	14.0
3.1949	430.180477016	13.0
3.2051	430.659926772	20.0
3.2154	431.142188813	12.0
3.2256	431.617906108	9.0
3.2358	432.091777116	11.0
3.2461	432.568427686	12.0
3.2563	433.038609662	16.0
3.2666	433.511549562	17.0
3.2768	433.978071226	12.0
3.287	434.442782292	12.0
3.2973	434.91021919	11.0
3.3075	435.371312533	15.0
3.3178	435.835110489	10.0
3.328	436.292614273	18.0
3.3382	436.748342458	17.0
3.3485	437.206743786	13.0
3.3587	437.658924179	13.0
3.369	438.113756905	15.0
3.3792	438.562417126	9.0
3.3894	439.00933607	16.0
3.3997	439.458876485	16.0
3.4099	439.902316216	26.0
3.4202	440.34835701	10.0
3.4304	440.788344614	18.0
3.4406	441.2266246	20.0
3.4509	441.667475383	26.0
3.4611	442.10234341	12.0
3.4714	442.53976222	15.0
3.4816	442.971244849	19.0
3.4918	443.401052869	18.0
3.5021	443.833381991	20.0
3.5123	444.259844004	10.0
3.5226	444.688807495	22.0
3.5328	445.11194955	17.0
3.543	445.533449366	12.0
3.5533	445.957421552	25.0
3.5635	446.375640041	19.0
3.5738	446.796311652	13.0
3.584	447.211274358	16.0
3.5942	447.624626568	19.0
3.6045	448.040403358	12.0
3.6147	448.450537669	17.0
3.625	448.863077684	14.0
3.6352	449.270019146	19.0
3.6454	449.675381245	16.0
3.6557	450.083121055	13.0
3.6659	450.485327456	7.0
3.6762	450.889893059	15.0
3.6864	451.28896833	9.0
3.6966	451.686494765	25.0
3.7069	452.086352951	7.0
3.7171	452.480784689	23.0
3.7274	452.877530026	17.0
3.7376	453.268891158	10.0
3.7478	453.658733394	12.0
3.7581	454.050862308	11.0
3.7683	454.437669667	19.0
3.7786	454.826745903	12.0
3.7888	455.210542011	18.0
3.799	455.592848584	13.0
3.8093	455.977397633	9.0
3.8195	456.356727993	15.0
3.8298	456.738283373	8.0
3.84	457.114660689	9.0
3.8502	457.489577263	19.0
3.8605	457.866692967	15.0
3.8707	458.238690858	12.0
3.881	458.612870759	15.0
3.8912	458.98197269	14.0
3.9014	459.349642113	11.0
3.9117	459.719468158	10.0
3.9219	460.084275317	7.0
3.9322	460.451222309	13.0
3.9424	460.813189486	7.0
3.9526	461.173751848	19.0
3.9629	461.536429143	11.0
3.9731	461.894184568	9.0
3.9834	462.254038461	10.0
3.9936	462.609008802	5.0
4.0038	462.962601481	15.0
4.0141	463.318268211	8.0
4.0243	463.669108212	16.0
4.0346	464.022006117	9.0
4.0448	464.370114869	14.0
4.055	464.71687259	13.0
4.0653	465.065664271	11.0
4.0755	465.409722522	16.0
4.0858	465.7557989	17.0
4.096	466.097178698	10.0
4.1062	466.43723358	12.0
4.1165	466.779283106	17.0
4.1267	467.1166907	12.0
4.137	467.45607741	16.0
4.1472	467.790858325	12.0
4.1574	468.124339935	10.0
4.1677	468.459777632	10.0
4.1779	468.790663127	15.0
4.1882	469.12348948	16.0
4.1984	469.451799068	9.0
4.2086	469.778834468	12.0
4.2189	470.107788143	16.0
4.2291	470.43227761	8.0
4.2394	470.758670418	12.0
4.2496	471.080633772	15.0
4.2598	471.401347566	11.0
4.2701	471.723942556	9.0
4.2803	472.04215963	11.0
4.2906	472.362243255	13.0
4.3008	472.677983046	11.0
4.311	472.992497432	21.0
4.3213	473.308856649	13.0
4.3315	473.620922577	10.0
4.3418	473.934818975	8.0
4.352	474.244455505	12.0
4.3622	474.552890318	16.0
4.3725	474.863134301	14.0
4.3827	475.169167984	15.0
4.393	475.476996754	14.0
4.4032	475.780648	10.0
4.4134	476.083120757	13.0
4.4237	476.387367714	12.0
4.4339	476.687485755	13.0
4.4442	476.989364184	16.0
4.4544	477.287145842	13.0
4.4646	477.58377179	9.0
4.4749	477.882137643	15.0
4.4851	478.176454393	12.0
4.4954	478.472497502	10.0
4.5056	478.76452303	12.0
4.5158	479.055415189	15.0
4.5261	479.34801362	11.0
4.5363	479.636641218	9.0
4.5466	479.926961804	8.0
4.5568	480.213342468	12.0
4.567	480.498611672	19.0
4.5773	480.785554166	13.0
4.5875	481.068602582	11.0
4.5978	481.353311261	11.0
4.608	481.634156178	10.0
4.6182	481.913911119	8.0
4.6285	482.195307005	16.0
4.6387	482.472884086	16.0
4.649	482.752089337	9.0
4.6592	483.027505512	9.0
4.6694	483.30185278	11.0
4.6797	483.577809274	13.0
4.6899	483.850020781	8.0
4.7002	484.123828985	12.0
4.7104	484.393921356	12.0
4.7206	484.662965483	9.0
4.7309	484.933587728	10.0
4.7411	485.200537377	13.0
4.7514	485.46905286	8.0
4.7616	485.733924337	17.0
4.7718	485.997767831	13.0
4.7821	486.26315894	7.0
4.7923	486.524948443	11.0
4.8026	486.788273513	8.0
4.8128	487.048025015	9.0
4.823	487.306768406	10.0
4.8333	487.567029495	8.0
4.8435	487.823758599	11.0
4.8538	488.081993586	7.0
4.864	488.336724083	10.0
4.8742	488.590465956	18.0
4.8845	488.84569619	9.0
4.8947	489.097462711	8.0
4.905	489.350706007	7.0
4.9152	489.600512555	7.0
4.9254	489.849349589	10.0
4.9357	490.099646214	3.0
4.9459	490.34654608	11.0
4.9562	490.594894175	11.0
4.9664	490.839871954	12.0
4.9766	491.08389896	6.0
4.9869	491.329357342	5.0
4.9971	491.571484626	8.0
5.0074	491.815032143	13.0
5.0176	492.055274494	14.0
5.0278	492.294584449	7.0
5.0381	492.535298114	9.0
5.0483	492.772745069	11.0
5.0586	493.011584805	9.0
5.0688	493.247183262	8.0
5.079	493.481867349	14.0
5.0893	493.717928009	9.0
5.0995	493.950785107	10.0
5.1098	494.185008063	8.0
5.12	494.416052395	9.0
5.1302	494.646200029	7.0
5.1405	494.87769763	8.0
5.1507	495.106053592	6.0
5.161	495.33574901	13.0
5.1712	495.562327247	5.0
5.1814	495.788026121	13.0
5.1917	496.015048865	10.0
5.2019	496.238990699	12.0
5.2122	496.464246097	9.0
5.2224	496.686444569	15.0
5.2326	496.907780676	11.0
5.2429	497.130415063	6.0
5.2531	497.350028093	14.0
5.2634	497.570929297	6.0
5.2736	497.788832665	10.0
5.2838	498.005890338	11.0
5.2941	498.224221194	12.0
5.3043	498.439589098	11.0
5.3146	498.656220274	9.0
5.3248	498.869911563	4.0
5.335	499.082773503	9.0
5.3453	499.296884017	12.0
5.3555	499.508088852	17.0
5.3658	499.72053254	6.0
5.376	499.930093169	11.0
5.3862	500.138840481	7.0
5.3965	500.348812232	7.0
5.4067	500.55593447	5.0
5.417	500.764271614	6.0
5.4272	500.96978143	14.0
5.4374	501.174493649	9.0
5.4477	501.380406639	4.0
5.4579	501.583525197	16.0
5.4682	501.787835178	7.0
5.4784	501.989372481	4.0
5.4886	502.190127607	16.0
5.4989	502.392060291	7.0
5.5091	502.591252561	9.0
5.5194	502.791613223	5.0
5.5296	502.989254804	8.0
5.5398	503.186129326	10.0
5.5501	503.384158645	4.0
5.5603	503.579500522	7.0
5.5706	503.775988205	8.0
5.5808	503.969809368	9.0
5.591	504.162878299	9.0
5.6013	504.357079705	7.0
5.6115	504.548645616	10.0
5.6218	504.741335186	5.0
5.632	504.931409779	9.0
5.6422	505.120746681	6.0
5.6525	505.311194167	5.0
5.6627	505.499057103	9.0
5.673	505.688021978	5.0
5.6832	505.874422423	6.0
5.6934	506.060099436	5.0
5.7037	506.246865566	3.0
5.7139	506.431097105	8.0
5.7242	506.616409282	5.0
5.7344	506.7992066	7.0
5.7446	506.981294471	5.0
5.7549	507.164450405	10.0
5.7651	507.345120742	8.0
5.7754	507.526850829	6.0
5.7856	507.706114669	4.0
5.7958	507.884682774	5.0
5.8061	508.064298298	7.0
5.8163	508.241476272	4.0
5.8266	508.41969351	8.0
5.8368	508.595492174	6.0
5.847	508.770608552	2.0
5.8573	508.946752102	5.0
5.8675	509.12050522	6.0
5.8778	509.295277512	5.0
5.888	509.467677982	6.0
5.8982	509.639409355	3.0
5.9085	509.812148044	6.0
5.9187	509.982542508	5.0
5.929	510.153936447	1.0
5.9392	510.32300441	1.0
5.9494	510.491416209	5.0
5.9597	510.660815854	6.0
5.9699	510.827916587	3.0
5.9802	510.995997475	5.0
5.9904	511.161797349	6.0
6.0006	511.326953743	5.0
6.0109	511.493078887	3.0
6.0211	511.656949557	3.0
6.0314	511.821781436	2.0
6.0416	511.984376392	1.0
6.0518	512.146340308	3.0
6.0621	512.309254247	4.0
6.0723	512.469957292	3.0
6.0826	512.631602965	0.0
6.0928	512.791054955	2.0
6.103	512.949888103	0.0
6.1133	513.10965291	3.0
6.1235	513.26724956	1.0
6.1338	513.425770617	2.0
6.144	513.582140395	2.0
6.1542	513.737903293	1.0
6.1645	513.894579841	3.0
6.1747	514.049130142	3.0
6.185	514.204586982	3.0
6.1952	514.357934127	1.0
6.2054	514.510686122	6.0
6.2157	514.664334108	4.0
6.2259	514.815896946	1.0
6.2362	514.9683488	0.0
6.2464	515.11873174	1.0
6.2566	515.268531034	1.0
6.2669	515.419208999	2.0
6.2771	515.567842123	2.0
6.2874	515.717347077	2.0
6.2976	515.864823109	1.0
6.3078	516.011726778	5.0
6.3181	516.159492133	2.0
6.3283	516.305252174	4.0
6.3386	516.451867192	0.0
6.3488	516.596492508	1.0
6.359	516.740556524	0.0
6.3693	516.885465569	2.0
6.3795	517.028408064	1.0
6.3898	517.172189009	1.0
6.4	517.314018712	1.0
6.4102	517.455297966	1.0
6.4205	517.597405915	2.0
6.4307	517.737585326	0.0
6.441	517.878586981	1.0
6.4512	518.017675112	0.0
6.4614	518.156223433	1.0
6.4717	518.29558443	3.0
6.4819	518.433054169	1.0
6.4922	518.571330257	0.0
6.5024	518.707729809	1.0
6.5126	518.843599987	3.0
6.5229	518.980267131	2.0
6.5331	519.115079575	3.0
6.5434	519.250682782	2.0
6.5536	519.384445726	1.0
6.5638	519.517689529	1.0
6.5741	519.651714893	2.0
6.5843	519.783921408	1.0
6.5946	519.9169034	0.0
6.6048	520.048080702	0.0
6.615	520.178748897	2.0
6.6253	520.310183547	1.0
6.6355	520.439834505	1.0
6.6458	520.570245951	0.0
6.656	520.698887592	2.0
6.6662	520.827029966	2.0
6.6765	520.955923979	1.0
6.6867	521.083068781	1.0
6.697	521.210959369	1.0
6.7072	521.337114362	0.0
6.7174	521.462779741	0.0
6.7277	521.589182228	2.0
6.7379	521.713869316	1.0
6.7482	521.839287775	2.0
6.7584	521.963004188	2.0
6.7686	522.086240451	0.0
6.7789	522.210199574	0.0
6.7891	522.332476456	1.0
6.7994	522.455470572	1.0
6.8096	522.576795543	0.0
6.8198	522.697649644	2.0
6.8301	522.819212633	0.0
6.8403	522.939125899	1.0
6.8506	523.059742535	1.0
6.8608	523.17872229	1.0
6.871	523.297240278	2.0
6.8813	523.41645345	2.0
6.8915	523.534048789	1.0
6.9018	523.652333901	3.0
6.912	523.769013773	2.0
6.9222	523.885240804	1.0
6.9325	524.002149582	1.0
6.9427	524.117471799	2.0
6.953	524.233470455	0.0
6.9632	524.347894902	0.0
6.9734	524.461875261	0.0
6.9837	524.576524188	0.0
6.9939	524.689617223	0.0
7.0042	524.803373621	0.0
7.0144	524.91558624	0.0
7.0246	525.027363354	0.0
7.0349	525.139796114	1.0
7.0451	525.250703056	1.0
7.0554	525.36226054	0.0
7.0656	525.472304085	2.0
7.0758	525.581920544	1.0
7.0861	525.692179974	0.0
7.0963	525.800943082	1.0
7.1066	525.910344156	0.0
7.1168	526.018260555	0.0
7.127	526.125758124	1.0
7.1373	526.233886237	0.0
7.1475	526.34054695	2.0
7.1578	526.447833297	1.0
7.168	526.553663669	1.0
7.1782	526.659083306	1.0
7.1885	526.765121299	1.0
7.1987	526.869720256	0.0
7.209	526.974932755	0.0
7.2192	527.078717422	0.0
7.2294	527.182099295	0.0
7.2397	527.286087569	1.0
7.2499	527.388664626	0.0
7.2602	527.491843363	1.0
7.2704	527.593621869	1.0
7.2806	527.695005367	0.0
7.2909	527.796983544	1.0
7.3011	527.897577783	0.0
7.3114	527.998762072	0.0
7.3216	528.098573196	0.0
7.3318	528.197996947	0.0
7.3421	528.298003883	0.0
7.3523	528.396653632	0.0
7.3626	528.495882025	0.0
7.3728	528.593763797	0.0
7.383	528.691265683	0.0
7.3933	528.789339482	1.0
7.4035	528.886082328	1.0
7.4138	528.983392633	2.0
7.424	529.079382347	0.0
7.4342	529.174999519	1.0
7.4445	529.271177547	1.0
7.4547	529.366050351	1.0
7.465	529.461479645	0.0
7.4752	529.555613874	0.0
7.4854	529.649382763	2.0
7.4957	529.743701667	3.0
7.5059	529.836740576	0.0
7.5162	529.930325218	1.0
7.5264	530.02263983	1.0
7.5366	530.114596163	0.0
7.5469	530.207091879	2.0
7.5571	530.298332343	1.0
7.5674	530.390107991	1.0
7.5776	530.480638158	1.0
7.5878	530.570816972	0.0
7.5981	530.661524744	1.0
7.6083	530.751001526	0.0
7.6186	530.841003148	1.0
7.6288	530.929783364	1.0
7.639	531.018219018	1.0
7.6493	531.107173406	0.0
7.6595	531.194920599	1.0
7.6698	531.283182486	1.0
7.68	531.370246577	2.0
7.6902	531.456972768	0.0
7.7005	531.544207664	1.0
7.7107	531.630258701	0.0
7.721	531.716814483	1.0
7.7312	531.802195623	0.0
7.7414	531.887245393	0.0
7.7517	531.972794035	0.0
7.7619	532.057181703	0.0
7.7722	532.142064359	2.0
7.7824	532.225795078	1.0
7.7926	532.309200833	1.0
7.8029	532.393095818	2.0
7.8131	532.475852269	0.0
7.8234	532.55909414	1.0
7.8336	532.641206342	0.0
7.8438	532.722999861	1.0
7.8541	532.805273153	1.0
7.8643	532.886429919	0.0
7.8746	532.968062722	0.0
7.8848	533.048587693	0.0
7.895	533.12880014	1.0
7.9053	533.209483086	0.0
7.9155	533.28907109	1.0
7.9258	533.369125928	0.0
7.936	533.448094348	0.0
7.9462	533.526756286	0.0
7.9565	533.605879628	0.0
7.9667	533.683929193	0.0
7.977	533.762436569	0.0
7.9872	533.839878526	2.0
7.9974	533.917019927	1.0
8.0077	533.994613812	0.0
8.0179	534.071154676	5.0
8.0282	534.148144501	2.0
8.0384	534.224089503	1.0
8.0486	534.299739758	1.0
8.0589	534.375833751	0.0
8.0691	534.450895077	0.0
8.0794	534.526396687	1.0
8.0896	534.600873669	0.0
8.0998	534.675061602	0.0
8.1101	534.749684695	1.0
