TL-DOS Lehrstuhlversuch
detector=R1406804
job_number=2015-10-14-002
irradiation_dose [mSv]=5.0

[BEGIN DATA]
time [sec] 	 temperature [K] 	 photoncount 
0.0	106.217660881	0.0
0.0102	108.333240152	0.0
0.0205	110.459208085	1.0
0.0307	112.554333348	1.0
0.041	114.659746833	2.0
0.0512	116.734615844	0.0
0.0614	118.799479217	2.0
0.0717	120.87448221	2.0
0.0819	122.91938191	0.0
0.0922	124.974323198	0.0
0.1024	126.999452241	1.0
0.1126	129.014815508	3.0
0.1229	131.040075321	0.0
0.1331	133.035953496	1.0
0.1434	135.041632535	0.0
0.1536	137.018214006	1.0
0.1638	138.985263811	1.0
0.1741	140.961972917	0.0
0.1843	142.910004738	2.0
0.1946	144.867602472	1.0
0.2048	146.796800182	1.0
0.215	148.716694724	3.0
0.2253	150.646017008	1.0
0.2355	152.547349477	0.0
0.2458	154.458018539	1.0
0.256	156.340968398	1.0
0.2662	158.214838111	0.0
0.2765	160.097909558	0.0
0.2867	161.953662179	0.0
0.297	163.818527569	0.0
0.3072	165.656338258	0.0
0.3174	167.485286476	0.0
0.3277	169.323215839	0.0
0.3379	171.134481277	0.0
0.3482	172.954641029	0.0
0.3584	174.748394651	0.0
0.3686	176.533498257	0.0
0.3789	178.327367707	0.0
0.3891	180.095212436	0.0
0.3994	181.871738259	0.0
0.4096	183.622490975	1.0
0.4198	185.364801038	0.0
0.4301	187.115666806	0.0
0.4403	188.841131732	0.0
0.4506	190.575069644	0.0
0.4608	192.283852297	0.0
0.471	193.984394689	0.0
0.4813	195.693287684	0.0
0.4915	197.377388761	0.0
0.5018	199.069759704	1.0
0.512	200.737578424	0.0
0.5222	202.397354424	0.0
0.5325	204.065280841	0.0
0.5427	205.709009667	0.0
0.553	207.360810108	0.0
0.5632	208.988646908	0.0
0.5734	210.608633791	0.0
0.5837	212.236575706	0.0
0.5939	213.840900107	0.0
0.6042	215.453102627	0.0
0.6144	217.041915975	0.0
0.6246	218.62306759	0.0
0.6349	220.211983533	0.0
0.6451	221.777848136	0.0
0.6554	223.351401999	0.0
0.6656	224.902127389	0.0
0.6758	226.445374717	0.0
0.6861	227.996200243	0.0
0.6963	229.524527028	0.0
0.7066	231.060358742	0.0
0.7168	232.57390924	0.0
0.727	234.080160945	0.0
0.7373	235.593809178	0.0
0.7475	237.085498024	0.0
0.7578	238.584511886	0.0
0.768	240.06177867	0.0
0.7782	241.531921633	0.0
0.7885	243.00928381	0.0
0.7987	244.465213023	0.0
0.809	245.928291652	0.0
0.8192	247.370144537	1.0
0.8294	248.805044377	0.0
0.8397	250.246990367	0.0
0.8499	251.668017198	0.0
0.8602	253.096022054	1.0
0.8704	254.503310003	0.0
0.8806	255.903811589	0.0
0.8909	257.311190411	1.0
0.9011	258.698151559	1.0
0.9114	260.091923452	0.0
0.9216	261.465475075	1.0
0.9318	262.832403021	0.0
0.9421	264.206043339	0.0
0.9523	265.559755447	0.0
0.9626	266.920115029	1.0
0.9728	268.260739073	1.0
0.983	269.594898227	0.0
0.9933	270.935608839	0.0
1.0035	272.256868973	0.0
1.0138	273.584617223	0.0
1.024	274.893103047	0.0
1.0342	276.195278961	0.0
1.0445	277.503849279	2.0
1.0547	278.793435395	0.0
1.065	280.089354092	0.0
1.0752	281.366472132	0.0
1.0854	282.637431527	0.0
1.0957	283.914632035	0.0
1.1059	285.173303443	1.0
1.1162	286.438155622	0.0
1.1264	287.684657845	1.0
1.1366	288.925149062	3.0
1.1469	290.171731776	2.0
1.1571	291.40022958	1.0
1.1674	292.634759986	1.0
1.1776	293.851380333	2.0
1.1878	295.062133772	1.0
1.1981	296.27883268	3.0
1.2083	297.477880219	2.0
1.2186	298.682815744	2.0
1.2288	299.870270559	1.0
1.239	301.051999113	3.0
1.2493	302.239530606	4.0
1.2595	303.40983388	3.0
1.2698	304.585883989	4.0
1.28	305.744872446	1.0
1.2902	306.898271915	1.0
1.3005	308.057335212	0.0
1.3107	309.199583295	4.0
1.321	310.347440446	3.0
1.3312	311.478644958	3.0
1.3414	312.604394463	4.0
1.3517	313.73567202	1.0
1.3619	314.850537467	4.0
1.3722	315.970877519	5.0
1.3824	317.074964137	3.0
1.3926	318.17372652	6.0
1.4029	319.277884433	11.0
1.4131	320.366023676	5.0
1.4234	321.459506284	7.0
1.4336	322.537125095	4.0
1.4438	323.609547307	15.0
1.4541	324.687235704	8.0
1.4643	325.74928944	10.0
1.4746	326.816558446	12.0
1.4848	327.868343952	10.0
1.495	328.915057434	9.0
1.5053	329.966910857	9.0
1.5155	331.003504423	11.0
1.5258	332.045188236	13.0
1.536	333.071759727	21.0
1.5462	334.093380784	17.0
1.5565	335.120018565	24.0
1.5667	336.131762307	18.0
1.577	337.148474268	27.0
1.5872	338.150436191	19.0
1.5974	339.147566353	28.0
1.6077	340.149592976	21.0
1.6179	341.137082607	23.0
1.6282	342.129421358	19.0
1.6384	343.107363666	30.0
1.6486	344.080590044	33.0
1.6589	345.058595501	39.0
1.6691	346.022412456	46.0
1.6794	346.990962285	50.0
1.6896	347.945460791	40.0
1.6998	348.895356419	38.0
1.7101	349.84991656	36.0
1.7203	350.790628334	62.0
1.7306	351.735959523	49.0
1.7408	352.667576235	56.0
1.751	353.594700413	55.0
1.7613	354.526377282	69.0
1.7715	355.444537766	89.0
1.7818	356.367206925	93.0
1.792	357.276490379	87.0
1.8022	358.181388997	122.0
1.8125	359.090731166	110.0
1.8227	359.986880972	100.0
1.833	360.887431369	117.0
1.8432	361.774916951	149.0
1.8534	362.658122812	133.0
1.8637	363.545665702	136.0
1.8739	364.420332483	133.0
1.8842	365.299294362	185.0
1.8944	366.165504623	185.0
1.9046	367.027537759	203.0
1.9149	367.893803954	190.0
1.9251	368.747502714	202.0
1.9354	369.605393607	213.0
1.9456	370.450838571	204.0
1.9558	371.292206547	252.0
1.9661	372.137706105	267.0
1.9763	372.970939502	272.0
1.9866	373.808264535	290.0
1.9968	374.633442	325.0
2.007	375.454640213	286.0
2.0173	376.279870963	333.0
2.0275	377.093129604	313.0
2.0378	377.910381794	358.0
2.048	378.715777625	404.0
2.0582	379.517289596	412.0
2.0685	380.322737434	413.0
2.0787	381.116500166	458.0
2.089	381.914160711	471.0
2.0992	382.700249124	526.0
2.1094	383.482546784	537.0
2.1197	384.268685958	556.0
2.1299	385.043420147	571.0
2.1402	385.821958709	608.0
2.1504	386.589202553	634.0
2.1606	387.352746518	654.0
2.1709	388.120039906	705.0
2.1811	388.876201716	736.0
2.1914	389.636076699	770.0
2.2016	390.384927727	775.0
2.2118	391.130167572	838.0
2.2221	391.879066956	857.0
2.2323	392.617101615	865.0
2.2426	393.358760432	871.0
2.2528	394.089659568	900.0
2.263	394.817034089	913.0
2.2733	395.547980421	942.0
2.2835	396.268322484	1007.0
2.2938	396.992201824	989.0
2.304	397.70557942	998.0
2.3142	398.415516897	1027.0
2.3245	399.128940558	1006.0
2.3347	399.832014161	1058.0
2.345	400.538540245	1071.0
2.3552	401.234816338	1060.0
2.3654	401.927734779	982.0
2.3757	402.624055833	1103.0
2.3859	403.310274947	1054.0
2.3962	403.999863776	1055.0
2.4064	404.679448333	1120.0
2.4166	405.355755731	1113.0
2.4269	406.035384171	1092.0
2.4371	406.705152841	1043.0
2.4474	407.378210445	1012.0
2.4576	408.041503606	1040.0
2.4678	408.701598169	1060.0
2.4781	409.364934161	1002.0
2.4883	410.018646746	987.0
2.4986	410.675569422	921.0
2.5088	411.322961733	935.0
2.519	411.967232124	870.0
2.5293	412.61466624	890.0
2.5395	413.252707647	836.0
2.5498	413.893882189	746.0
2.56	414.525754835	785.0
2.5702	415.154580402	780.0
2.5805	415.78649385	727.0
2.5907	416.409239757	711.0
2.601	417.03504369	695.0
2.6112	417.651768717	611.0
2.6214	418.265519712	642.0
2.6317	418.882284562	614.0
2.6419	419.490101642	615.0
2.6522	420.100903439	556.0
2.6624	420.702843975	547.0
2.6726	421.301881773	543.0
2.6829	421.903861178	553.0
2.6931	422.497107313	551.0
2.7034	423.093266614	566.0
2.7136	423.68077708	535.0
2.7238	424.265454396	513.0
2.7341	424.8530028	545.0
2.7443	425.432027293	511.0
2.7546	426.013895117	578.0
2.7648	426.58732144	541.0
2.775	427.157982531	542.0
2.7853	427.731445883	533.0
2.7955	428.296589664	602.0
2.8058	428.864508613	571.0
2.816	429.424188427	592.0
2.8262	429.981169298	627.0
2.8365	430.540885253	630.0
2.8467	431.092481078	638.0
2.857	431.646785543	711.0
2.8672	432.193048387	708.0
2.8774	432.736676989	705.0
2.8877	433.282975107	721.0
2.8979	433.821347756	762.0
2.9082	434.362364112	738.0
2.9184	434.895531625	776.0
2.9286	435.426128045	813.0
2.9389	435.959329986	770.0
2.9491	436.484796453	822.0
2.9594	437.01284325	805.0
2.9696	437.533229361	814.0
2.9798	438.051106015	831.0
2.9901	438.571525729	874.0
3.0003	439.084395408	832.0
3.0106	439.59978356	895.0
3.0208	440.107694672	946.0
3.031	440.613156486	951.0
3.0413	441.121100395	976.0
3.0515	441.621675264	901.0
3.0618	442.124708231	929.0
3.072	442.620443402	1000.0
3.0822	443.113787991	988.0
3.0925	443.609555174	1021.0
3.1027	444.09812997	1069.0
3.113	444.589103938	1008.0
3.1232	445.072955057	1106.0
3.1334	445.554472902	1029.0
3.1437	446.038355266	1025.0
3.1539	446.515217662	1054.0
3.1642	446.994421717	986.0
3.1744	447.466673675	1124.0
3.1846	447.936648294	1052.0
3.1949	448.408930748	1135.0
3.2051	448.874361522	1037.0
3.2154	449.342077818	1063.0
3.2256	449.803008677	1053.0
3.2358	450.261716791	1087.0
3.2461	450.722677415	1002.0
3.2563	451.176950611	1079.0
3.2666	451.63345454	1037.0
3.2768	452.083335697	984.0
3.287	452.531047393	976.0
3.2973	452.9809576	961.0
3.3075	453.424340695	1042.0
3.3178	453.869901046	1007.0
3.328	454.30899739	961.0
3.3382	454.74597628	943.0
3.3485	455.185100978	949.0
3.3587	455.617855036	935.0
3.369	456.052734154	948.0
3.3792	456.481304225	937.0
3.3894	456.907807603	890.0
3.3997	457.336405349	887.0
3.4099	457.758785174	894.0
3.4202	458.183239117	883.0
3.4304	458.601535257	880.0
3.4406	459.017814248	875.0
3.4509	459.436137398	889.0
3.4611	459.848391688	858.0
3.4714	460.262670375	917.0
3.4816	460.670938876	854.0
3.4918	461.077238585	836.0
3.5021	461.485533449	850.0
3.5123	461.887904939	857.0
3.5226	462.292252296	832.0
3.5328	462.690733547	879.0
3.543	463.087293202	909.0
3.5533	463.485800185	786.0
3.5635	463.878525792	889.0
3.5738	464.273179898	827.0
3.584	464.662108525	823.0
3.5942	465.049161621	823.0
3.6045	465.438115362	877.0
3.6147	465.821426322	878.0
3.625	466.20661955	862.0
3.6352	466.586224554	797.0
3.6454	466.963998988	878.0
3.6557	467.343628504	824.0
3.6659	467.71775051	836.0
3.6762	468.093709662	789.0
3.6864	468.464214553	828.0
3.6966	468.832932759	811.0
3.7069	469.203461575	865.0
3.7171	469.568614911	852.0
3.7274	469.935561352	827.0
3.7376	470.297184284	839.0
3.7478	470.657063362	833.0
3.7581	471.018709646	843.0
3.7683	471.375109313	832.0
3.7786	471.7332591	820.0
3.7888	472.086212997	833.0
3.799	472.437464845	812.0
3.8093	472.790441533	900.0
3.8195	473.13829738	818.0
3.8298	473.487861392	843.0
3.84	473.832354072	813.0
3.8502	474.175185506	844.0
3.8605	474.519700432	853.0
3.8707	474.859217276	807.0
3.881	475.200401336	850.0
3.8912	475.536635638	813.0
3.9014	475.871248517	852.0
3.9117	476.20750453	822.0
3.9219	476.538882279	778.0
3.9322	476.871887276	807.0
3.9424	477.200061173	841.0
3.9526	477.526652518	827.0
3.9629	477.854847606	818.0
3.9731	478.178281375	773.0
3.9834	478.503303382	724.0
3.9936	478.823610104	778.0
4.0038	479.14237221	846.0
4.0141	479.462699615	789.0
4.0243	479.778379841	801.0
4.0346	480.095610232	770.0
4.0448	480.408238374	791.0
4.055	480.71935893	784.0
4.0653	481.03200726	791.0
4.0755	481.340119816	758.0
4.0858	481.649745375	737.0
4.096	481.954879013	792.0
4.1062	482.258541206	753.0
4.1165	482.563694548	765.0
4.1267	482.864420851	739.0
4.137	483.166623886	797.0
4.1472	483.464442683	752.0
4.1574	483.760825309	729.0
4.1677	484.058663338	755.0
4.1779	484.352180454	735.0
4.1882	484.647138902	770.0
4.1984	484.937818214	728.0
4.2086	485.227095783	712.0
4.2189	485.517793865	724.0
4.2291	485.804274618	704.0
4.2394	486.092162151	721.0
4.2496	486.375873129	733.0
4.2598	486.658215968	746.0
4.2701	486.941945266	692.0
4.2803	487.221558336	681.0
4.2906	487.502544461	689.0
4.3008	487.779454154	732.0
4.311	488.055028506	657.0
4.3213	488.331956081	726.0
4.3315	488.604866103	685.0
4.3418	488.879116265	678.0
4.352	489.149387718	680.0
4.3622	489.418355842	711.0
4.3725	489.688644747	665.0
4.3827	489.955012412	721.0
4.393	490.222688089	685.0
4.4032	490.486480438	707.0
4.4134	490.7490007	744.0
4.4237	491.012810083	708.0
4.4339	491.272792227	700.0
4.4442	491.534051027	728.0
4.4544	491.791519592	682.0
4.4646	492.047746566	724.0
4.4749	492.305231757	762.0
4.4851	492.558981458	686.0
4.4954	492.81397721	721.0
4.5056	493.065273588	713.0
4.5158	493.31535814	657.0
4.5261	493.566670746	687.0
4.5363	493.814337411	697.0
4.5466	494.063220257	690.0
4.5568	494.308492412	654.0
4.567	494.552581792	678.0
4.5773	494.797869785	669.0
4.5875	495.039599241	676.0
4.5978	495.282515722	705.0
4.608	495.521908071	668.0
4.6182	495.760145998	702.0
4.6285	495.999553805	708.0
4.6387	496.235488382	682.0
4.649	496.472581527	709.0
4.6592	496.706235023	609.0
4.6694	496.938761772	680.0
4.6797	497.172430356	687.0
4.6899	497.402708971	650.0
4.7002	497.634118382	689.0
4.7104	497.8621706	716.0
4.7206	498.089123083	713.0
4.7309	498.317190027	681.0
4.7411	498.54194827	648.0
4.7514	498.767810199	661.0
4.7616	498.990395417	713.0
4.7718	499.211907262	651.0
4.7821	499.434506853	681.0
4.7923	499.65387706	678.0
4.8026	499.874324497	664.0
4.8128	500.091573772	638.0
4.823	500.307775406	688.0
4.8333	500.52503871	644.0
4.8435	500.739150047	707.0
4.8538	500.954312789	654.0
4.864	501.166354038	655.0
4.8742	501.377372761	641.0
4.8845	501.589427703	698.0
4.8947	501.798406238	588.0
4.905	502.008410973	649.0
4.9152	502.215369046	665.0
4.9254	502.421329106	638.0
4.9357	502.628300543	630.0
4.9459	502.832269323	615.0
4.9562	503.037239703	624.0
4.9664	503.239236456	643.0
4.9766	503.440259121	567.0
4.9869	503.642268918	661.0
4.9971	503.84134804	598.0
5.0074	504.041404751	585.0
5.0176	504.23855912	544.0
5.0278	504.434762753	565.0
5.0381	504.631929854	574.0
5.0483	504.826236535	514.0
5.0586	505.02149737	527.0
5.0688	505.21392544	504.0
5.079	505.405425565	531.0
5.0893	505.597866061	480.0
5.0995	505.78751471	526.0
5.1098	505.978094638	493.0
5.12	506.165909711	484.0
5.1302	506.352819083	502.0
5.1405	506.540646284	460.0
5.1507	506.725748565	497.0
5.161	506.9117598	452.0
5.1712	507.09507246	436.0
5.1814	507.277501133	454.0
5.1917	507.46082563	427.0
5.2019	507.641490531	416.0
5.2122	507.823042597	422.0
5.2224	508.00196078	403.0
5.2326	508.180016165	384.0
5.2429	508.358945902	404.0
5.2531	508.535279799	379.0
5.2634	508.712479592	340.0
5.2736	508.887108644	312.0
5.2838	509.060895583	308.0
5.2941	509.235535911	375.0
5.3043	509.407642629	320.0
5.3146	509.580594486	269.0
5.3248	509.751037229	311.0
5.335	509.920658046	331.0
5.3453	510.091111795	278.0
5.3555	510.25909267	267.0
5.3658	510.427898425	262.0
5.376	510.594255215	233.0
5.3862	510.759809783	290.0
5.3965	510.926177315	239.0
5.4067	511.090131256	239.0
5.417	511.2548903	232.0
5.4272	511.417259089	211.0
5.4374	511.578844886	218.0
5.4477	511.741224159	202.0
5.4579	511.9012477	217.0
5.4682	512.062057045	199.0
5.4784	512.220533434	187.0
5.4886	512.378245603	158.0
5.4989	512.536732225	209.0
5.5091	512.692919589	182.0
5.5194	512.849873919	153.0
5.5296	513.00455122	139.0
5.5398	513.158482621	137.0
5.5501	513.31316991	132.0
5.5603	513.465613059	150.0
5.5706	513.618804788	121.0
5.5808	513.769774075	138.0
5.591	513.920015342	122.0
5.6013	514.070994377	104.0
5.6115	514.219783071	125.0
5.6218	514.369302399	102.0
5.632	514.516652562	108.0
5.6422	514.663292158	69.0
5.6525	514.810651836	98.0
5.6627	514.95587368	90.0
5.673	515.101808644	96.0
5.6832	515.245626443	84.0
5.6934	515.38875071	81.0
5.7037	515.532577796	73.0
5.7139	515.674318297	64.0
5.7242	515.816754823	80.0
5.7344	515.957124938	84.0
5.7446	516.096818147	52.0
5.7549	516.237197326	69.0
5.7651	516.375539942	55.0
5.7754	516.514561896	44.0
5.7856	516.651566977	54.0
5.7958	516.787911379	70.0
5.8061	516.924925307	49.0
5.8163	517.059951493	48.0
5.8266	517.195640732	42.0
5.8368	517.329361448	37.0
5.847	517.462437322	45.0
5.8573	517.596166672	39.0
5.8675	517.727955932	41.0
5.8778	517.86039235	28.0
5.888	517.990907434	31.0
5.8982	518.120793136	29.0
5.9085	518.251316649	36.0
5.9187	518.37994658	31.0
5.929	518.509208155	34.0
5.9392	518.636594456	26.0
5.9494	518.763366462	26.0
5.9597	518.890760989	29.0
5.9699	519.016307328	31.0
5.9802	519.142470169	28.0
5.9904	519.266802692	20.0
6.0006	519.390535646	25.0
6.0109	519.514876197	25.0
6.0211	519.637412866	18.0
6.0314	519.760551259	16.0
6.0416	519.88190321	20.0
6.0518	520.002669965	29.0
6.0621	520.124029752	14.0
6.0723	520.243628901	18.0
6.0826	520.363815348	15.0
6.0928	520.482258179	16.0
6.103	520.600129844	14.0
6.1133	520.718580324	13.0
6.1235	520.835312372	17.0
6.1338	520.95261764	18.0
6.144	521.068221091	9.0
6.1542	521.183267067	15.0
6.1645	521.298877983	11.0
6.1747	521.412811663	7.0
6.185	521.52730482	10.0
6.1952	521.640136958	11.0
6.2054	521.752424985	9.0
6.2157	521.865264409	14.0
6.2259	521.976466804	7.0
6.2362	522.088215265	16.0
6.2464	522.198342525	13.0
6.2566	522.307938718	11.0
6.2669	522.41807309	7.0
6.2771	522.526609677	5.0
6.2874	522.635679238	17.0
6.2976	522.743166463	9.0
6.3078	522.850135353	14.0
6.3181	522.957629519	9.0
6.3283	523.063564204	11.0
6.3386	523.170019086	9.0
6.3488	523.274929565	9.0
6.359	523.379334134	5.0
6.3693	523.484251387	8.0
6.3795	523.587646544	11.0
6.3898	523.691549428	5.0
6.4	523.793944932	13.0
6.4102	523.895846654	7.0
6.4205	523.99824877	7.0
6.4307	524.099165278	5.0
6.441	524.200577342	11.0
6.4512	524.300518161	4.0
6.4614	524.399977036	6.0
6.4717	524.499924308	6.0
6.4819	524.598421587	5.0
6.4922	524.697402542	7.0
6.5024	524.794947521	5.0
6.5126	524.89202211	8.0
6.5229	524.989573388	6.0
6.5331	525.085709433	9.0
6.5434	525.182317559	9.0
6.5536	525.277524133	6.0
6.5638	525.372271593	6.0
6.5741	525.467484316	7.0
6.5843	525.561315731	5.0
6.5946	525.655607911	5.0
6.6048	525.748532138	5.0
6.615	525.841008257	8.0
6.6253	525.933938484	4.0
6.6355	526.025520519	7.0
6.6458	526.117552271	6.0
6.656	526.208248865	5.0
6.6662	526.298508092	5.0
6.6765	526.389210542	5.0
6.6867	526.478597118	6.0
6.697	526.568422632	5.0
6.7072	526.656944994	3.0
6.7174	526.745040475	0.0
6.7277	526.833568553	4.0
6.7379	526.920812302	5.0
6.7482	527.008484466	7.0
6.7584	527.094884719	7.0
6.7686	527.180868324	5.0
6.7789	527.267274155	7.0
6.7891	527.352426446	0.0
6.7994	527.437996882	2.0
6.8096	527.522325898	9.0
6.8198	527.606248253	4.0
6.8301	527.690582714	5.0
6.8403	527.773693685	3.0
6.8506	527.857212777	0.0
6.8608	527.939520208	3.0
6.871	528.021430728	3.0
6.8813	528.103743474	5.0
6.8915	528.18486206	5.0
6.9018	528.266378984	0.0
6.912	528.346713293	2.0
6.9222	528.426660206	5.0
6.9325	528.506999703	2.0
6.9427	528.586173668	4.0
6.953	528.66573642	5.0
6.9632	528.744144909	5.0
6.9734	528.822175288	3.0
6.9837	528.90058884	7.0
6.9939	528.9778648	2.0
7.0042	529.055520228	5.0
7.0144	529.132049062	1.0
7.0246	529.208208852	3.0
7.0349	529.284742628	4.0
7.0451	529.360166084	4.0
7.0554	529.435959911	3.0
7.0656	529.510654152	1.0
7.0758	529.584988195	4.0
7.0861	529.659687259	12.0
7.0963	529.73330262	6.0
7.1066	529.807279472	5.0
7.1168	529.8801831	5.0
7.127	529.952735164	5.0
7.1373	530.025643498	3.0
7.1475	530.097494109	5.0
7.1578	530.169697545	2.0
7.168	530.240853484	2.0
7.1782	530.311666288	3.0
7.1885	530.382826822	3.0
7.1987	530.452954988	4.0
7.209	530.523427522	6.0
7.2192	530.592877669	6.0
7.2294	530.661992907	2.0
7.2397	530.731447539	3.0
7.2499	530.799894551	2.0
7.2602	530.868677677	1.0
7.2704	530.936462925	6.0
7.2806	531.003921292	8.0
7.2909	531.071710917	2.0
7.3011	531.138517078	6.0
7.3114	531.205651294	6.0
7.3216	531.271811555	4.0
7.3318	531.337652771	5.0
7.3421	531.403817303	5.0
7.3523	531.469021948	3.0
7.3626	531.534546784	1.0
7.3728	531.599121012	3.0
7.383	531.663383844	4.0
7.3933	531.727962242	8.0
7.4035	531.791603763	5.0
7.4138	531.8555578	4.0
7.424	531.918584017	6.0
7.4342	531.981306303	2.0
7.4445	532.04433659	4.0
7.4547	532.10645246	3.0
7.465	532.168873352	1.0
7.4752	532.230388668	3.0
7.4854	532.291607339	2.0
7.4957	532.353126628	8.0
7.5059	532.413753419	5.0
7.5162	532.474677922	5.0
7.5264	532.534718557	1.0
7.5366	532.594469659	4.0
7.5469	532.654514171	3.0
7.5571	532.713687582	5.0
7.5674	532.773151567	2.0
7.5776	532.831752873	5.0
7.5878	532.890071586	4.0
7.5981	532.948676676	4.0
7.6083	533.006431548	3.0
7.6186	533.064470028	5.0
7.6288	533.121666509	4.0
7.639	533.178587172	2.0
7.6493	533.235787347	2.0
7.6595	533.292157685	4.0
7.6698	533.348804833	3.0
7.68	533.404630167	3.0
7.6902	533.460186295	9.0
7.7005	533.516015234	5.0
7.7107	533.57103423	7.0
7.721	533.626323399	5.0
7.7312	533.680810456	1.0
7.7414	533.735034759	2.0
7.7517	533.789525335	3.0
7.7619	533.843225383	2.0
7.7722	533.897189128	1.0
7.7824	533.950369989	3.0
7.7926	534.003294396	6.0
7.8029	534.056478692	3.0
7.8131	534.108891411	3.0
7.8234	534.161561506	3.0
7.8336	534.213467485	2.0
