TL-DOS Lehrstuhlversuch
detector=R1408106
job_number=2015-10-22-006
irradiation_dose [mSv]=5.0

[BEGIN DATA]
time [sec] 	 temperature [K] 	 photoncount 
0.0	73.9384744633	0.0
0.0102	76.3910444498	0.0
0.0205	78.854650692	3.0
0.0307	81.2815237306	1.0
0.041	83.7193173918	1.0
0.0512	86.1207627237	1.0
0.0614	88.5096556546	3.0
0.0717	90.9092983024	1.0
0.0819	93.2731614654	3.0
0.0922	95.6476617145	2.0
0.1024	97.9867573606	2.0
0.1126	100.313626509	4.0
0.1229	102.650966274	3.0
0.1331	104.953455513	2.0
0.1434	107.266305662	4.0
0.1536	109.544670432	1.0
0.1638	111.811126145	0.0
0.1741	114.087780624	1.0
0.1843	116.330489413	3.0
0.1946	118.583290108	0.0
0.2048	120.802500782	1.0
0.215	123.0101116	2.0
0.2253	125.227656387	2.0
0.2355	127.41213683	0.0
0.2458	129.60644716	1.0
0.256	131.76803958	1.0
0.2662	133.918333314	0.0
0.2765	136.078303099	0.0
0.2867	138.206067003	0.0
0.297	140.343405576	0.0
0.3072	142.448875707	0.0
0.3174	144.543340505	1.0
0.3277	146.64723013	1.0
0.3379	148.719750049	1.0
0.3482	150.801596045	0.0
0.3584	152.852401013	1.0
0.3686	154.892486383	0.0
0.3789	156.941751881	0.0
0.3891	158.960462135	1.0
0.3994	160.988256331	0.0
0.4096	162.985815429	0.0
0.4198	164.972933247	0.0
0.4301	166.968992845	0.0
0.4403	168.935290517	1.0
0.4506	170.910436282	0.0
0.4608	172.856131953	0.0
0.471	174.791657436	2.0
0.4813	176.73589254	1.0
0.4915	178.65113844	0.0
0.5018	180.575002704	0.0
0.512	182.470181501	0.0
0.5222	184.355454162	0.0
0.5325	186.249210312	0.0
0.5427	188.114729916	0.0
0.553	189.988644123	1.0
0.5632	191.834617634	0.0
0.5734	193.670942207	0.0
0.5837	195.515530008	0.0
0.5939	197.33261438	0.0
0.6042	199.157875403	0.0
0.6144	200.955921166	0.0
0.6246	202.744568509	1.0
0.6349	204.541264539	0.0
0.6451	206.311171223	1.0
0.6554	208.089042264	0.0
0.6656	209.840404645	0.0
0.6758	211.582612622	0.0
0.6861	213.332660314	0.0
0.6963	215.056614203	0.0
0.7066	216.788325667	0.0
0.7168	218.494216726	1.0
0.727	220.19119106	1.0
0.7373	221.895801564	0.0
0.7475	223.574995748	1.0
0.7578	225.261746094	1.0
0.768	226.923346421	0.0
0.7782	228.576261532	0.0
0.7885	230.236614551	0.0
0.7987	231.872211145	0.0
0.809	233.515167717	1.0
0.8192	235.133627251	0.0
0.8294	236.743627065	0.0
0.8397	238.360871675	0.0
0.8499	239.95400262	1.0
0.8602	241.554302453	2.0
0.8704	243.130741274	2.0
0.8806	244.698940019	0.0
0.8909	246.27419546	1.0
0.9011	247.825963309	0.0
0.9114	249.384713918	1.0
0.9216	250.920223027	0.0
0.9318	252.447706001	1.0
0.9421	253.982062455	1.0
0.9523	255.493541134	0.0
0.9626	257.011821277	1.0
0.9728	258.507463349	1.0
0.983	259.995287671	0.0
0.9933	261.489807015	0.0
1.0035	262.962042569	0.0
1.0138	264.440902997	1.0
1.024	265.897713116	0.0
1.0342	267.34690846	2.0
1.0445	268.802625	1.0
1.0547	270.236636313	0.0
1.065	271.677100497	1.0
1.0752	273.096086871	2.0
1.0854	274.507656176	0.0
1.0957	275.925577366	0.0
1.1059	277.32235687	1.0
1.1162	278.725421705	1.0
1.1264	280.107566369	0.0
1.1366	281.482486536	3.0
1.1469	282.86359367	1.0
1.1571	284.224108029	5.0
1.1674	285.590744531	1.0
1.1776	286.93700402	1.0
1.1878	288.276226584	2.0
1.1981	289.621475481	2.0
1.2083	290.946666262	2.0
1.2186	292.277820233	2.0
1.2288	293.589126249	4.0
1.239	294.893578042	3.0
1.2493	296.203899704	0.0
1.2595	297.494684026	3.0
1.2698	298.791276714	4.0
1.28	300.068536767	3.0
1.2902	301.339120557	3.0
1.3005	302.615421813	7.0
1.3107	303.872692985	6.0
1.321	305.135621719	3.0
1.3312	306.379719758	5.0
1.3414	307.617314872	5.0
1.3517	308.860479009	4.0
1.3619	310.085107147	5.0
1.3722	311.315245957	10.0
1.3824	312.52704298	5.0
1.3926	313.732505918	5.0
1.4029	314.943393286	9.0
1.4131	316.136225914	7.0
1.4234	317.334426138	5.0
1.4336	318.514760791	7.0
1.4438	319.688925811	7.0
1.4541	320.868374427	12.0
1.4643	322.030237064	10.0
1.4746	323.197327936	18.0
1.4848	324.347017088	7.0
1.495	325.490696793	12.0
1.5053	326.639522912	16.0
1.5155	327.771219644	14.0
1.5258	328.908008869	16.0
1.536	330.027848182	21.0
1.5462	331.141834073	14.0
1.5565	332.26083276	21.0
1.5667	333.363146798	25.0
1.577	334.470421109	30.0
1.5872	335.561185586	31.0
1.5974	336.646248616	23.0
1.6077	337.736194292	33.0
1.6179	338.809888509	24.0
1.6282	339.888414215	29.0
1.6384	340.950858737	36.0
1.6486	342.007749841	35.0
1.6589	343.069396822	45.0
1.6691	344.115214287	47.0
1.6794	345.165737798	56.0
1.6896	346.200597648	48.0
1.6998	347.230048266	47.0
1.7101	348.264131281	54.0
1.7203	349.282795769	69.0
1.7306	350.306044118	67.0
1.7408	351.314035488	53.0
1.751	352.316758067	70.0
1.7613	353.323992772	66.0
1.7715	354.316209265	88.0
1.7818	355.312890608	74.0
1.792	356.294711095	86.0
1.8022	357.271399587	100.0
1.8125	358.252483054	98.0
1.8227	359.218938234	106.0
1.833	360.189742341	149.0
1.8432	361.146071429	134.0
1.8534	362.097401767	149.0
1.8637	363.053012971	153.0
1.8739	363.994375689	161.0
1.8842	364.93997442	144.0
1.8944	365.871473954	168.0
1.9046	366.798104522	180.0
1.9149	367.72890481	200.0
1.9251	368.645826551	230.0
1.9354	369.566874324	240.0
1.9456	370.474188963	254.0
1.9558	371.37676105	274.0
1.9661	372.283394599	267.0
1.9763	373.176509934	285.0
1.9866	374.073644175	278.0
1.9968	374.957401841	330.0
2.007	375.836540088	323.0
2.0173	376.719634347	364.0
2.0275	377.589561371	353.0
2.0378	378.463402957	359.0
2.048	379.324215269	395.0
2.0582	380.180528098	391.0
2.0685	381.040694228	444.0
2.0787	381.888034988	504.0
2.089	382.739188676	480.0
2.0992	383.577651373	526.0
2.1094	384.41173141	521.0
2.1197	385.249564702	545.0
2.1299	386.074905616	608.0
2.1402	386.90396046	604.0
2.1504	387.720653815	644.0
2.1606	388.533078298	652.0
2.1709	389.349158589	713.0
2.1811	390.153070846	687.0
2.1914	390.960600607	717.0
2.2016	391.756089826	770.0
2.2118	392.547421008	785.0
2.2221	393.342313079	783.0
2.2323	394.125353041	803.0
2.2426	394.911916584	850.0
2.2528	395.686752198	861.0
2.263	396.457537731	843.0
2.2733	397.231791702	884.0
2.2835	397.994501285	951.0
2.2938	398.760642963	986.0
2.304	399.515361211	960.0
2.3142	400.266134531	932.0
2.3245	401.020286236	1001.0
2.3347	401.763193284	944.0
2.345	402.50944332	947.0
2.3552	403.244566515	920.0
2.3654	403.975847208	904.0
2.3757	404.710418571	970.0
2.3859	405.434037226	875.0
2.3962	406.160912074	956.0
2.4064	406.876948971	1013.0
2.4166	407.58924313	936.0
2.4269	408.304742523	886.0
2.4371	409.009573578	863.0
2.4474	409.717576283	877.0
2.4576	410.415022428	842.0
2.4678	411.108823009	846.0
2.4781	411.805745605	820.0
2.4883	412.492276849	779.0
2.4986	413.181897397	753.0
2.5088	413.861235469	717.0
2.519	414.537022628	696.0
2.5293	415.215850743	675.0
2.5395	415.884557302	710.0
2.5498	416.556272956	658.0
2.56	417.217973101	608.0
2.5702	417.876214528	620.0
2.5805	418.537417958	595.0
2.5907	419.18876262	575.0
2.601	419.843038252	550.0
2.6112	420.487558412	518.0
2.6214	421.128709653	562.0
2.6317	421.772745994	542.0
2.6419	422.407179534	514.0
2.6522	423.044467946	528.0
2.6624	423.672254171	530.0
2.6726	424.296758946	554.0
2.6829	424.924073914	562.0
2.6931	425.542035402	526.0
2.7034	426.16277764	546.0
2.7136	426.774264401	564.0
2.7238	427.382554908	622.0
2.7341	427.993582646	577.0
2.7443	428.595499754	561.0
2.7546	429.200125412	581.0
2.7648	429.795735897	589.0
2.775	430.388233115	657.0
2.7853	430.983396495	659.0
2.7955	431.569685788	685.0
2.8058	432.158613309	730.0
2.816	432.738759721	691.0
2.8262	433.315873696	721.0
2.8365	433.895584612	737.0
2.8467	434.466651841	774.0
2.857	435.040288801	818.0
2.8672	435.605372639	812.0
2.8774	436.167502774	858.0
2.8877	436.732162423	824.0
2.8979	437.288402805	835.0
2.9082	437.847146199	900.0
2.9184	438.39755854	828.0
2.9286	438.945093865	891.0
2.9389	439.49509303	932.0
2.9491	440.036891521	938.0
2.9594	440.581128036	910.0
2.9696	441.117249801	943.0
2.9798	441.650569247	1060.0
2.9901	442.186288564	975.0
3.0003	442.714020124	1030.0
3.0106	443.244126409	977.0
3.0208	443.76632863	1005.0
3.031	444.28580129	991.0
3.0413	444.807611512	1081.0
3.0515	445.321641366	1067.0
3.0618	445.83798429	1068.0
3.072	446.346628366	1092.0
3.0822	446.852613749	1110.0
3.0925	447.360876003	1122.0
3.1027	447.861559895	1076.0
3.113	448.364496801	1115.0
3.1232	448.859934747	1083.0
3.1334	449.35278303	1110.0
3.1437	449.847849067	1046.0
3.1539	450.335533503	1040.0
3.1642	450.825412457	1062.0
3.1744	451.307987149	1036.0
3.1846	451.788039415	1089.0
3.1949	452.270251855	1051.0
3.2051	452.745274344	1091.0
3.2154	453.222434375	1045.0
3.2256	453.692479788	1089.0
3.2358	454.160068264	990.0
3.2461	454.62976083	982.0
3.2563	455.09245012	1010.0
3.2666	455.557221454	995.0
3.2768	456.01506289	941.0
3.287	456.47051118	997.0
3.2973	456.928008929	950.0
3.3075	457.378685233	985.0
3.3178	457.831389523	890.0
3.328	458.277343838	970.0
3.3382	458.720967142	935.0
3.3485	459.166586694	919.0
3.3587	459.605561908	879.0
3.369	460.046512455	909.0
3.3792	460.480888281	869.0
3.3894	460.912993615	873.0
3.3997	461.347043369	882.0
3.4099	461.774621294	914.0
3.4202	462.204123266	794.0
3.4304	462.627221217	882.0
3.4406	463.048107628	861.0
3.4509	463.470887975	855.0
3.4611	463.887364523	863.0
3.4714	464.305715163	869.0
3.4816	464.717828054	840.0
3.4918	465.127786822	849.0
3.5021	465.539590353	906.0
3.5123	465.945253754	915.0
3.5226	466.35274259	835.0
3.5328	466.754155628	887.0
3.543	467.153470473	804.0
3.5533	467.554582184	883.0
3.5635	467.949713184	854.0
3.5738	468.346622224	894.0
3.584	468.737613215	876.0
3.5942	469.126560489	908.0
3.6045	469.517257977	868.0
3.6147	469.902130032	897.0
3.625	470.288733964	864.0
3.6352	470.6695735	883.0
3.6454	471.04842238	914.0
3.6557	471.428976032	906.0
3.6659	471.803855501	864.0
3.6762	472.180421879	888.0
3.6864	472.551373526	854.0
3.6966	472.920386201	876.0
3.7069	473.291059387	880.0
3.7171	473.65620571	873.0
3.7274	474.022995145	870.0
3.7376	474.384315626	844.0
3.7478	474.743747477	919.0
3.7581	475.104796727	861.0
3.7683	475.46046261	850.0
3.7786	475.817728944	873.0
3.7888	476.169668316	871.0
3.799	476.519768095	820.0
3.8093	476.871443278	851.0
3.8195	477.217874866	842.0
3.8298	477.565865351	876.0
3.84	477.908667181	894.0
3.8502	478.249677179	881.0
3.8605	478.592221679	799.0
3.8707	478.929658724	751.0
3.881	479.268614194	834.0
3.8912	479.602515722	810.0
3.9014	479.934671941	824.0
3.9117	480.268322821	811.0
3.9219	480.596998854	848.0
3.9322	480.927153887	819.0
3.9424	481.252386196	806.0
3.9526	481.575918511	768.0
3.9629	481.900906679	788.0
3.9731	482.221049164	776.0
3.9834	482.54263225	796.0
3.9936	482.859420423	781.0
4.0038	483.174552739	775.0
4.0141	483.491103109	761.0
4.0243	483.802933607	815.0
4.0346	484.116167303	714.0
4.0448	484.424730578	750.0
4.055	484.731680987	757.0
4.0653	485.040012634	804.0
4.0755	485.343746951	755.0
4.0858	485.648848035	695.0
4.096	485.949399958	702.0
4.1062	486.248380891	773.0
4.1165	486.5487072	782.0
4.1267	486.844555542	710.0
4.137	487.141735165	715.0
4.1472	487.434483738	739.0
4.1574	487.725702109	728.0
4.1677	488.018230926	794.0
4.1779	488.306398039	744.0
4.1882	488.595861868	752.0
4.1984	488.881009693	749.0
4.2086	489.164667045	725.0
4.2189	489.44960082	726.0
4.2291	489.730286135	784.0
4.2394	490.012234499	739.0
4.2496	490.289978917	710.0
4.2598	490.566271559	696.0
4.2701	490.843807484	723.0
4.2803	491.117205254	730.0
4.2906	491.39183328	722.0
4.3008	491.662366508	679.0
4.311	491.931485655	701.0
4.3213	492.201815803	674.0
4.3315	492.468115238	718.0
4.3418	492.735612986	709.0
4.352	492.999122252	704.0
4.3622	493.26125415	698.0
4.3725	493.524565609	724.0
4.3827	493.783951005	701.0
4.393	494.044503602	731.0
4.4032	494.301171272	747.0
4.4134	494.556497334	740.0
4.4237	494.812972332	691.0
4.4339	495.065623201	703.0
4.4442	495.319410967	714.0
4.4544	495.569414671	700.0
4.4646	495.818111602	694.0
4.4749	496.067927637	688.0
4.4851	496.31401883	714.0
4.4954	496.561217403	759.0
4.5056	496.804730161	677.0
4.5158	497.046970073	714.0
4.5261	497.290300034	691.0
4.5363	497.530001863	702.0
4.5466	497.770782321	715.0
4.5568	498.00797266	676.0
4.567	498.2439232	698.0
4.5773	498.480935488	686.0
4.5875	498.714413843	722.0
4.5978	498.948942821	707.0
4.608	499.179974892	733.0
4.6182	499.409799355	683.0
4.6285	499.640657998	692.0
4.6387	499.868074461	698.0
4.649	500.096514269	694.0
4.6592	500.321547962	679.0
4.6694	500.5454054	679.0
4.6797	500.770270168	688.0
4.6899	500.991782126	655.0
4.7002	501.21429086	674.0
4.7104	501.433481914	669.0
4.7206	501.651527251	660.0
4.7309	501.870553765	641.0
4.7411	502.08631452	628.0
4.7514	502.303046171	594.0
4.7616	502.516546279	631.0
4.7718	502.728930418	565.0
4.7821	502.942270259	579.0
4.7923	503.152429131	612.0
4.8026	503.363533691	641.0
4.8128	503.571490611	582.0
4.823	503.778360536	575.0
4.8333	503.98616135	582.0
4.8435	504.190863783	534.0
4.8538	504.396487351	544.0
4.864	504.599045002	540.0
4.8742	504.80054388	544.0
4.8845	505.002949478	478.0
4.8947	505.202337139	498.0
4.905	505.402622021	502.0
4.9152	505.599920586	498.0
4.9254	505.796187869	477.0
4.9357	505.993338329	494.0
4.9459	506.187549209	482.0
4.9562	506.382634014	430.0
4.9664	506.574810038	463.0
4.9766	506.765981554	434.0
4.9869	506.958013318	399.0
4.9971	507.147181824	369.0
5.0074	507.337201563	399.0
5.0176	507.524388044	362.0
5.0278	507.710596098	363.0
5.0381	507.897642065	339.0
5.0483	508.081899113	345.0
5.0586	508.266985294	375.0
5.0688	508.449311777	291.0
5.079	508.630685237	330.0
5.0893	508.812874854	294.0
5.0995	508.992347963	307.0
5.1098	509.172628677	306.0
5.12	509.350221346	282.0
5.1302	509.526885733	259.0
5.1405	509.704345089	239.0
5.1507	509.879158465	249.0
5.161	510.054758479	260.0
5.1712	510.227740238	240.0
5.1814	510.399817818	213.0
5.1917	510.572669725	213.0
5.2019	510.742944352	201.0
5.2122	510.913985193	199.0
5.2224	511.082475757	185.0
5.2326	511.250085617	190.0
5.2429	511.418449701	166.0
5.2531	511.58430342	173.0
5.2634	511.750903459	171.0
5.2736	511.915019435	171.0
5.2838	512.078277574	131.0
5.2941	512.242270354	134.0
5.3043	512.403817946	131.0
5.3146	512.566092481	116.0
5.3248	512.725947449	128.0
5.335	512.884966851	111.0
5.3453	513.044701821	123.0
5.3555	513.202055088	106.0
5.3658	513.360116425	117.0
5.376	513.515821014	94.0
5.3862	513.670711732	102.0
5.3965	513.826299439	72.0
5.4067	513.97956728	83.0
5.417	514.133524808	81.0
5.4272	514.285186776	75.0
5.4374	514.436056005	64.0
5.4477	514.587604125	80.0
5.4579	514.736892613	68.0
5.4682	514.886852879	60.0
5.4784	515.034577187	67.0
5.4886	515.181529337	58.0
5.4989	515.329142754	51.0
5.5091	515.474555204	56.0
5.5194	515.620621992	57.0
5.5296	515.764510875	52.0
5.5398	515.907647648	35.0
5.5501	516.051428518	47.0
5.5603	516.193065567	40.0
5.5706	516.335339964	44.0
5.5808	516.475493003	36.0
5.591	516.614913458	30.0
5.6013	516.754961288	31.0
5.6115	516.892920957	33.0
5.6218	517.031501428	38.0
5.632	517.168015617	40.0
5.6422	517.303816243	25.0
5.6525	517.440227955	26.0
5.6627	517.574605723	25.0
5.673	517.709588173	21.0
5.6832	517.842557989	29.0
5.6934	517.97483277	28.0
5.7037	518.10770277	21.0
5.7139	518.238591634	23.0
5.7242	518.37006948	19.0
5.7344	518.499586948	19.0
5.7446	518.628427426	19.0
5.7549	518.757847669	18.0
5.7651	518.885338213	20.0
5.7754	519.013402448	20.0
5.7856	519.139557202	21.0
5.7958	519.265052542	20.0
5.8061	519.391112596	10.0
5.8163	519.515293052	16.0
5.8266	519.640032304	11.0
5.8368	519.762911651	16.0
5.847	519.885148706	6.0
5.8573	520.007935812	16.0
5.8675	520.128892121	9.0
5.8778	520.250392718	17.0
5.888	520.3700817	8.0
5.8982	520.489145065	7.0
5.9085	520.6087442	7.0
5.9187	520.726560072	9.0
5.929	520.844906101	7.0
5.9392	520.96148755	10.0
5.9494	521.077459625	8.0
5.9597	521.19395356	7.0
5.9699	521.308710531	5.0
5.9802	521.423983895	16.0
5.9904	521.537538493	12.0
6.0006	521.650499539	12.0
6.0109	521.763968895	10.0
6.0211	521.875746385	6.0
6.0314	521.98802686	8.0
6.0416	522.098633195	12.0
6.0518	522.208661388	7.0
6.0621	522.319184694	15.0
6.0723	522.428060061	5.0
6.0826	522.537425352	6.0
6.0928	522.645159971	4.0
6.103	522.752331458	4.0
6.1133	522.859985203	9.0
6.1235	522.966033795	8.0
6.1338	523.072559592	11.0
6.144	523.177497053	11.0
6.1542	523.281886004	3.0
6.1645	523.386744692	7.0
6.1747	523.490039902	4.0
6.185	523.593799927	5.0
6.1952	523.696012855	3.0
6.2054	523.797691514	2.0
6.2157	523.899827714	7.0
6.2259	524.000441029	9.0
6.2362	524.101507091	5.0
6.2464	524.201066224	5.0
6.2566	524.300104959	7.0
6.2669	524.399589356	6.0
6.2771	524.497590407	5.0
6.2874	524.596032451	8.0
6.2976	524.69300669	5.0
6.3078	524.789474043	4.0
6.3181	524.886375487	2.0
6.3283	524.981832097	4.0
6.3386	525.07771825	6.0
6.3488	525.172174709	6.0
6.359	525.266137441	5.0
6.3693	525.360522994	4.0
6.3795	525.453501227	8.0
6.3898	525.546897849	7.0
6.4	525.638901897	4.0
6.4102	525.730425037	7.0
6.4205	525.82236002	4.0
6.4307	525.912924222	8.0
6.441	526.00389595	6.0
6.4512	526.09351126	5.0
6.4614	526.182658149	7.0
6.4717	526.272206187	2.0
6.4819	526.360419034	5.0
6.4922	526.449028827	3.0
6.5024	526.536317418	2.0
6.5126	526.623149751	7.0
6.5229	526.710372817	6.0
6.5331	526.796295359	4.0
6.5434	526.882604541	3.0
6.5536	526.967626824	9.0
6.5638	527.052204693	6.0
6.5741	527.137163153	2.0
6.5843	527.220854853	1.0
6.5946	527.304923155	8.0
6.6048	527.38773797	5.0
6.615	527.470119911	3.0
6.6253	527.55287256	5.0
6.6355	527.634391338	3.0
6.6458	527.716276942	8.0
6.656	527.796941603	5.0
6.6662	527.877184628	4.0
6.6765	527.957788737	2.0
6.6867	528.037191011	3.0
6.697	528.116950586	6.0
6.7072	528.195520918	7.0
6.7174	528.273680561	3.0
6.7277	528.352191913	5.0
6.7379	528.429532635	1.0
6.7482	528.507221379	3.0
6.7584	528.583751759	2.0
6.7686	528.659882112	5.0
6.7789	528.736355043	2.0
6.7891	528.811687736	6.0
6.7994	528.887359416	7.0
6.8096	528.961902807	6.0
6.8198	529.036056557	7.0
6.8301	529.110543991	5.0
6.8403	529.183920791	3.0
6.8506	529.257627778	6.0
6.8608	529.330235768	5.0
6.871	529.402464235	4.0
6.8813	529.475017721	7.0
6.8915	529.546489411	2.0
6.9018	529.618282713	4.0
6.912	529.689005553	8.0
6.9222	529.759358724	9.0
6.9325	529.830028475	3.0
6.9427	529.899644516	7.0
6.953	529.96957382	8.0
6.9632	530.038460455	4.0
6.9734	530.106987018	3.0
6.9837	530.175821942	3.0
6.9939	530.243630514	2.0
7.0042	530.311744216	4.0
7.0144	530.37884232	2.0
7.0246	530.4455897	2.0
7.0349	530.512637435	1.0
7.0451	530.578685466	9.0
7.0554	530.645030705	7.0
7.0656	530.710386714	3.0
7.0758	530.775401105	4.0
7.0861	530.840708053	3.0
7.0963	530.905041253	4.0
7.1066	530.969663943	6.0
7.1168	531.033323088	5.0
7.127	531.096649485	6.0
7.1373	531.160260842	2.0
7.1475	531.222923733	4.0
7.1578	531.285868599	4.0
7.168	531.347874936	3.0
7.1782	531.409557164	5.0
7.1885	531.471516954	6.0
7.1987	531.532552904	5.0
7.209	531.593863507	5.0
7.2192	531.654259948	4.0
7.2294	531.714340696	2.0
7.2397	531.7746918	0.0
7.2499	531.834143048	4.0
7.2602	531.893861819	6.0
7.2704	531.952690164	6.0
7.2806	532.011211011	6.0
7.2909	532.069995195	4.0
7.3011	532.127902887	9.0
7.3114	532.186071156	3.0
7.3216	532.243372116	1.0
7.3318	532.300373564	4.0
7.3421	532.35763151	1.0
7.3523	532.414035722	5.0
7.3626	532.470693745	3.0
7.3728	532.526506977	3.0
7.383	532.582028473	3.0
7.3933	532.637799809	2.0
7.4035	532.692739575	3.0
7.4138	532.747926563	4.0
7.424	532.802290695	2.0
7.4342	532.856370664	2.0
7.4445	532.910693986	4.0
7.4547	532.964207329	4.0
7.465	533.017961475	2.0
7.4752	533.070914129	7.0
7.4854	533.123589998	4.0
7.4957	533.176502902	4.0
7.5059	533.228626857	5.0
7.5162	533.280985363	5.0
7.5264	533.332563185	1.0
7.5366	533.38387141	3.0
7.5469	533.435410515	5.0
7.5571	533.486181155	3.0
7.5674	533.537180256	6.0
7.5776	533.587418943	2.0
7.5878	533.637395031	6.0
7.5981	533.687596006	2.0
7.6083	533.737048467	5.0
7.6186	533.786723458	3.0
7.6288	533.835657778	2.0
7.639	533.884336318	2.0
7.6493	533.933233904	5.0
7.6595	533.981402412	4.0
7.6698	534.029787671	3.0
7.68	534.07745149	4.0
7.6902	534.124866169	1.0
7.7005	534.172494208	4.0
7.7107	534.219412097	4.0
7.721	534.26654111	1.0
7.7312	534.312967414	5.0
7.7414	534.359151047	6.0
7.7517	534.4055425	3.0
7.7619	534.451242241	3.0
7.7722	534.497147625	1.0
7.7824	534.542368544	5.0
7.7926	534.587353093	6.0
7.8029	534.632540066	4.0
7.8131	534.677053287	3.0
7.8234	534.721766811	1.0
7.8336	534.765813641	2.0
7.8438	534.809630238	2.0
7.8541	534.853644004	4.0
7.8643	534.89700151	2.0
