TL-DOS Lehrstuhlversuch
detector=R1407502
job_number=2015-10-22-006
irradiation_dose [mSv]=5.0

[BEGIN DATA]
time [sec] 	 temperature [K] 	 photoncount 
0.0	159.493699648	0.0
0.0102	160.884018317	0.0
0.0205	162.283031651	1.0
0.0307	163.663591498	0.0
0.041	165.052784981	3.0
0.0512	166.423654504	1.0
0.0614	167.789727871	0.0
0.0717	169.164344279	1.0
0.0819	170.520829005	0.0
0.0922	171.885796807	1.0
0.1024	173.232760195	0.0
0.1126	174.575011065	4.0
0.1229	175.925655997	0.0
0.1331	177.25848544	0.0
0.1434	178.599650024	2.0
0.1536	179.923124168	1.0
0.1638	181.241967974	0.0
0.1741	182.569059461	0.0
0.1843	183.878646136	3.0
0.1946	185.1964226	0.0
0.2048	186.496817121	2.0
0.215	187.792662051	1.0
0.2253	189.096610833	1.0
0.2355	190.383360064	2.0
0.2458	191.678156264	0.0
0.256	192.95587364	1.0
0.2662	194.229120763	0.0
0.2765	195.510330418	0.0
0.2867	196.77464046	0.0
0.297	198.046857142	0.0
0.3072	199.302292832	0.0
0.3174	200.553336224	0.0
0.3277	201.812203292	0.0
0.3379	203.054465453	0.0
0.3482	204.304496375	0.0
0.3584	205.538038941	0.0
0.3686	206.767265806	0.0
0.3789	208.004179912	0.0
0.3891	209.224778679	1.0
0.3994	210.453010729	0.0
0.4096	211.665041958	0.0
0.4198	212.872832747	0.0
0.4301	214.088176722	0.0
0.4403	215.287489875	0.0
0.4506	216.494303197	1.0
0.4608	217.685198219	0.0
0.471	218.871926748	1.0
0.4813	220.066076745	0.0
0.4915	221.244475477	0.0
0.5018	222.430243585	0.0
0.512	223.600370987	0.0
0.5222	224.766404554	0.0
0.5325	225.939730169	0.0
0.5427	227.097579199	0.0
0.553	228.262669093	0.0
0.5632	229.412391035	1.0
0.5734	230.558090533	0.0
0.5837	231.710954914	0.0
0.5939	232.848612602	0.0
0.6042	233.993384883	0.0
0.6144	235.123057208	0.0
0.6246	236.248777236	2.0
0.6349	237.381537201	0.0
0.6451	238.499355657	0.0
0.6554	239.624164637	0.0
0.6656	240.734136984	0.0
0.6758	241.840225956	0.0
0.6861	242.953232098	1.0
0.6963	244.051557292	0.0
0.7066	245.156751104	0.0
0.7168	246.247367015	1.0
0.727	247.334167271	0.0
0.7373	248.427764072	0.0
0.7475	249.506935939	0.0
0.7578	250.592856646	0.0
0.768	251.66445367	0.0
0.7782	252.73230158	0.0
0.7885	253.806827512	0.0
0.7987	254.867180062	1.0
0.809	255.934163761	1.0
0.8192	256.987073563	0.0
0.8294	258.03629963	0.0
0.8397	259.092087264	0.0
0.8499	260.13394868	0.0
0.8602	261.182325607	0.0
0.8704	262.216874067	1.0
0.8806	263.247803031	2.0
0.8909	264.285179137	0.0
0.9011	265.308871881	0.0
0.9114	266.338966513	2.0
0.9216	267.355473828	0.0
0.9318	268.368424767	0.0
0.9421	269.387710418	0.0
0.9523	270.393551326	0.0
0.9626	271.405682482	1.0
0.9728	272.404463266	0.0
0.983	273.399749692	0.0
0.9933	274.401260361	1.0
1.0035	275.389560746	0.0
1.0138	276.384041686	0.0
1.024	277.365405066	0.0
1.0342	278.343335024	0.0
1.0445	279.327380684	1.0
1.0547	280.298446429	1.0
1.065	281.275584947	0.0
1.0752	282.239834659	0.0
1.0854	283.200710825	1.0
1.0957	284.167596041	0.0
1.1059	285.121727695	0.0
1.1162	286.081826222	0.0
1.1264	287.029260705	3.0
1.1366	287.973380472	1.0
1.1469	288.9234045	1.0
1.1571	289.860897372	1.0
1.1674	290.804253061	1.0
1.1776	291.735165551	0.0
1.1878	292.66282113	0.0
1.1981	293.596278006	1.0
1.2083	294.517422253	0.0
1.2186	295.444327078	1.0
1.2288	296.359005696	1.0
1.239	297.270484199	0.0
1.2493	298.187662833	0.0
1.2595	299.092743553	2.0
1.2698	300.003484395	0.0
1.28	300.902212239	1.0
1.2902	301.797795773	1.0
1.3005	302.698980035	3.0
1.3107	303.588277355	4.0
1.321	304.483136092	4.0
1.3312	305.366191321	1.0
1.3414	306.246157073	0.0
1.3517	307.131625885	2.0
1.3619	308.005415046	0.0
1.3722	308.88466864	4.0
1.3824	309.752324565	0.0
1.3926	310.616944889	3.0
1.4029	311.486972306	0.0
1.4131	312.34552375	2.0
1.4234	313.209444335	3.0
1.4336	314.061969498	0.0
1.4438	314.911511996	4.0
1.4541	315.766367296	3.0
1.4643	316.609946749	0.0
1.4746	317.458801711	6.0
1.4848	318.296459973	3.0
1.495	319.131187584	2.0
1.5053	319.971135348	2.0
1.5155	320.800003901	2.0
1.5258	321.634055965	5.0
1.536	322.457106585	3.0
1.5462	323.27727766	1.0
1.5565	324.102577856	8.0
1.5667	324.916992047	1.0
1.577	325.736499356	5.0
1.5872	326.545197071	7.0
1.5974	327.351065458	6.0
1.6077	328.161973519	4.0
1.6179	328.962185413	9.0
1.6282	329.767401609	15.0
1.6384	330.561996715	8.0
1.6486	331.353811831	10.0
1.6589	332.150578738	7.0
1.6691	332.936836005	8.0
1.6794	333.728010304	14.0
1.6896	334.508748732	11.0
1.6998	335.28675565	13.0
1.7101	336.069628005	10.0
1.7203	336.842173994	17.0
1.7306	337.619551269	16.0
1.7408	338.38667466	16.0
1.751	339.151114175	14.0
1.7613	339.920334281	12.0
1.7715	340.679408099	13.0
1.7818	341.443228952	11.0
1.792	342.196974735	17.0
1.8022	342.948083445	20.0
1.8125	343.703889379	15.0
1.8227	344.449725962	17.0
1.833	345.200226798	17.0
1.8432	345.94082826	23.0
1.8534	346.678838637	26.0
1.8637	347.421464323	21.0
1.8739	348.154294512	23.0
1.8842	348.891707615	26.0
1.8944	349.619393976	23.0
1.9046	350.344534436	37.0
1.9149	351.074209722	38.0
1.9251	351.794260329	24.0
1.9354	352.518813932	38.0
1.9456	353.233810413	42.0
1.9558	353.946305392	41.0
1.9661	354.663256114	41.0
1.9763	355.37075	51.0
1.9866	356.082668355	53.0
1.9968	356.785196251	43.0
2.007	357.485266268	63.0
2.0173	358.189714326	60.0
2.0275	358.884870463	64.0
2.0378	359.584373911	68.0
2.048	360.274650659	56.0
2.0582	360.962512389	54.0
2.0685	361.654675813	66.0
2.0787	362.337709354	71.0
2.089	363.025014396	82.0
2.0992	363.703253638	90.0
2.1094	364.379119977	96.0
2.1197	365.059212994	103.0
2.1299	365.730335342	97.0
2.1402	366.405654701	91.0
2.1504	367.072066356	92.0
2.1606	367.736146487	111.0
2.1709	368.40437959	126.0
2.1811	369.06379846	129.0
2.1914	369.72734115	145.0
2.2016	370.382131475	134.0
2.2118	371.034630935	143.0
2.2221	371.691210944	139.0
2.2323	372.339130428	149.0
2.2426	372.99110182	201.0
2.2528	373.634473475	180.0
2.263	374.275594215	205.0
2.2733	374.920724345	189.0
2.2835	375.557344978	225.0
2.2938	376.197946858	206.0
2.304	376.830098971	219.0
2.3142	377.460039421	237.0
2.3245	378.093919342	249.0
2.3347	378.71943816	250.0
2.345	379.348868798	237.0
2.3552	379.969997021	297.0
2.3654	380.58895215	290.0
2.3757	381.211778052	305.0
2.3859	381.826388657	304.0
2.3962	382.444842864	333.0
2.4064	383.05513944	343.0
2.4166	383.663300817	401.0
2.4269	384.275265466	373.0
2.4371	384.879158082	335.0
2.4474	385.486827273	414.0
2.4576	386.086481091	376.0
2.4678	386.684036946	452.0
2.4781	387.285329747	423.0
2.4883	387.878691282	471.0
2.4986	388.475763534	478.0
2.5088	389.064960189	504.0
2.519	389.652095466	547.0
2.5293	390.242902524	529.0
2.5395	390.825916625	509.0
2.5498	391.412576733	592.0
2.56	391.991498585	590.0
2.5702	392.568395007	571.0
2.5805	393.148899178	623.0
2.5907	393.721746291	654.0
2.601	394.29817583	651.0
2.6112	394.867002057	696.0
2.6214	395.433838175	658.0
2.6317	396.004219128	678.0
2.6419	396.567076552	757.0
2.6522	397.133453928	710.0
2.6624	397.692360585	738.0
2.6726	398.249311838	716.0
2.6829	398.809746107	755.0
2.6931	399.362788049	777.0
2.7034	399.91928856	775.0
2.7136	400.46844863	739.0
2.7238	401.015687396	762.0
2.7341	401.56634844	753.0
2.7443	402.109746068	809.0
2.7546	402.656541953	810.0
2.7648	403.196125404	834.0
2.775	403.733821056	832.0
2.7853	404.274879307	848.0
2.7955	404.808800805	770.0
2.8058	405.346061299	842.0
2.816	405.876235135	789.0
2.8262	406.404554092	764.0
2.8365	406.936177009	807.0
2.8467	407.460787628	748.0
2.857	407.988679016	731.0
2.8672	408.509607328	794.0
2.8774	409.028713108	736.0
2.8877	409.55106523	702.0
2.8979	410.06652734	664.0
2.9082	410.585213007	658.0
2.9184	411.097057024	661.0
2.9286	411.607110292	678.0
2.9389	412.12035329	693.0
2.9491	412.626826429	635.0
2.9594	413.136466909	647.0
2.9696	413.63938505	616.0
2.9798	414.140543669	601.0
2.9901	414.644836394	598.0
3.0003	415.142477317	528.0
3.0106	415.643230348	535.0
3.0208	416.137378267	501.0
3.031	416.629797348	519.0
3.0413	417.125295881	529.0
3.0515	417.614258611	506.0
3.0618	418.106279177	455.0
3.072	418.591809816	467.0
3.0822	419.075641765	453.0
3.0925	419.562499465	444.0
3.1027	420.042935337	487.0
3.113	420.526375721	421.0
3.1232	421.003439353	458.0
3.1334	421.478833919	426.0
3.1437	421.95720147	458.0
3.1539	422.429259182	440.0
3.1642	422.90426901	422.0
3.1744	423.373013289	442.0
3.1846	423.840117609	456.0
3.1949	424.310143068	468.0
3.2051	424.773968723	453.0
3.2154	425.240695014	449.0
3.2256	425.701265018	438.0
3.2358	426.160223661	455.0
3.2461	426.622052503	475.0
3.2563	427.077789658	472.0
3.2666	427.536376865	456.0
3.2768	427.988915143	537.0
3.287	428.43987016	521.0
3.2973	428.893645323	504.0
3.3075	429.34143503	535.0
3.3178	429.792025088	521.0
3.328	430.236671702	575.0
3.3382	430.679762666	594.0
3.3485	431.125624596	551.0
3.3587	431.565605447	608.0
3.369	432.008337816	582.0
3.3792	432.445230387	616.0
3.3894	432.880594435	630.0
3.3997	433.318681128	601.0
3.4099	433.7509893	618.0
3.4202	434.186001007	687.0
3.4304	434.615274754	685.0
3.4406	435.043046634	713.0
3.4509	435.47349368	673.0
3.4611	435.898262975	716.0
3.4714	436.325688658	736.0
3.4816	436.747476444	729.0
3.4918	437.167788553	736.0
3.5021	437.590729177	752.0
3.5123	438.008091062	771.0
3.5226	438.428063012	777.0
3.5328	438.842495381	758.0
3.543	439.255477808	749.0
3.5533	439.671042911	790.0
3.5635	440.081126562	780.0
3.5738	440.493774761	836.0
3.584	440.900979983	776.0
3.5942	441.306760548	871.0
3.6045	441.71507875	807.0
3.6147	442.118011089	787.0
3.625	442.523463255	827.0
3.6352	442.923567361	851.0
3.6454	443.322271654	852.0
3.6557	443.723469331	831.0
3.6659	444.119375068	860.0
3.6762	444.517756689	834.0
3.6864	444.910883513	859.0
3.6966	445.302634935	883.0
3.7069	445.696836261	864.0
3.7171	446.08583793	884.0
3.7274	446.477272307	916.0
3.7376	446.863543524	842.0
3.7478	447.248463324	852.0
3.7581	447.635790304	850.0
3.7683	448.018008303	861.0
3.7786	448.402616587	852.0
3.7888	448.782151749	835.0
3.799	449.160359061	803.0
3.8093	449.540931576	852.0
3.8195	449.916484203	869.0
3.8298	450.294385432	847.0
3.84	450.667302007	815.0
3.8502	451.038913889	888.0
3.8605	451.412849726	817.0
3.8707	451.781853217	769.0
3.881	452.153164352	778.0
3.8912	452.51957776	806.0
3.9014	452.884709226	775.0
3.9117	453.252124122	714.0
3.9219	453.614692684	757.0
3.9322	453.979528648	748.0
3.9424	454.339552296	790.0
3.9526	454.698316356	775.0
3.9629	455.059324026	778.0
3.9731	455.415569876	691.0
3.9834	455.774043588	684.0
3.9936	456.127788904	718.0
4.0038	456.480296597	753.0
4.0141	456.835008776	769.0
4.0243	457.185042173	697.0
4.0346	457.537264582	697.0
4.0448	457.884841051	705.0
4.055	458.231201481	708.0
4.0653	458.579727952	691.0
4.0755	458.923657234	710.0
4.0858	459.269737354	729.0
4.096	459.611252554	725.0
4.1062	459.95157292	654.0
4.1165	460.294021554	693.0
4.1267	460.631953169	698.0
4.137	460.971998113	680.0
4.1472	461.307557743	646.0
4.1574	461.641943376	702.0
4.1677	461.978420164	637.0
4.1779	462.310458702	683.0
4.1882	462.644573716	696.0
4.1984	462.974281634	618.0
4.2086	463.302836028	656.0
4.2189	463.633445109	649.0
4.2291	463.959693338	672.0
4.2394	464.287981832	626.0
4.2496	464.611940083	704.0
4.2598	464.934764927	666.0
4.2701	465.259608627	671.0
4.2803	465.580167522	684.0
4.2906	465.902731103	664.0
4.3008	466.221039955	675.0
4.311	466.538235164	690.0
4.3213	466.857414023	647.0
4.3315	467.172382799	701.0
4.3418	467.489321302	643.0
4.352	467.802079272	682.0
4.3622	468.11374302	675.0
4.3725	468.427355826	695.0
4.3827	468.736831966	663.0
4.393	469.048243484	727.0
4.4032	469.355547373	682.0
4.4134	469.661776121	640.0
4.4237	469.969919938	671.0
4.4339	470.273999228	692.0
4.4442	470.579980144	652.0
4.4544	470.881925063	657.0
4.4646	471.18281359	652.0
4.4749	471.48558379	691.0
4.4851	471.784360343	685.0
4.4954	472.08500536	677.0
4.5056	472.381684763	703.0
4.5158	472.677326196	718.0
4.5261	472.974816487	736.0
4.5363	473.268382775	683.0
4.5466	473.563784945	705.0
4.5568	473.855290655	688.0
4.567	474.145776495	692.0
4.5773	474.438078953	662.0
4.5875	474.726525837	673.0
4.5978	475.016776587	685.0
4.608	475.303198826	646.0
4.6182	475.588618981	664.0
4.6285	475.875824074	697.0
4.6387	476.159240829	671.0
4.649	476.444429994	614.0
4.6592	476.725857411	648.0
4.6694	477.006300219	676.0
4.6797	477.288496839	628.0
4.6899	477.566971184	710.0
4.7002	477.84718703	582.0
4.7104	478.123706728	649.0
4.7206	478.399258988	655.0
4.7309	478.676534475	630.0
4.7411	478.950152599	683.0
4.7514	479.225481855	645.0
4.7616	479.497179418	627.0
4.7718	479.767926415	644.0
4.7821	480.040366587	637.0
4.7923	480.309213177	616.0
4.8026	480.579741057	665.0
4.8128	480.846700578	658.0
4.823	481.112726108	618.0
4.8333	481.380415287	652.0
4.8435	481.644573551	721.0
4.8538	481.910383786	584.0
4.864	482.172687889	587.0
4.8742	482.434074289	598.0
4.8845	482.697095326	616.0
4.8947	482.956647022	556.0
4.905	483.217821881	588.0
4.9152	483.475551751	582.0
4.9254	483.732379921	590.0
4.9357	483.990814222	559.0
4.9459	484.245839682	564.0
4.9562	484.502460001	572.0
4.9664	484.755695405	613.0
4.9766	485.008044834	545.0
4.9869	485.261972386	568.0
4.9971	485.512550543	558.0
5.0074	485.764695745	559.0
5.0176	486.013515062	621.0
5.0278	486.261463854	591.0
5.0381	486.510963248	536.0
5.0483	486.757171656	550.0
5.0586	487.004919783	543.0
5.0688	487.249400023	590.0
5.079	487.493024919	576.0
5.0893	487.738173377	608.0
5.0995	487.980088238	575.0
5.1098	488.223515968	553.0
5.12	488.463732799	552.0
5.1302	488.703109202	567.0
5.1405	488.943982598	547.0
5.1507	489.181678787	518.0
5.161	489.420861462	532.0
5.1712	489.656889232	492.0
5.1814	489.89209123	562.0
5.1917	490.128764115	551.0
5.2019	490.3623152	542.0
5.2122	490.597326848	587.0
5.2224	490.829238609	535.0
5.2326	491.060338997	529.0
5.2429	491.292884623	554.0
5.2531	491.522362889	531.0
5.2634	491.753276248	556.0
5.2736	491.981143776	557.0
5.2838	492.208214083	543.0
5.2941	492.436704423	557.0
5.3043	492.662180894	549.0
5.3146	492.889067432	533.0
5.3248	493.112961255	528.0
5.335	493.336071758	577.0
5.3453	493.560577532	600.0
5.3555	493.782121994	529.0
5.3658	494.005051934	577.0
5.376	494.225041347	532.0
5.3862	494.444261101	553.0
5.3965	494.664851794	520.0
5.4067	494.882532816	571.0
5.417	495.101575155	559.0
5.4272	495.317728247	545.0
5.4374	495.5331251	493.0
5.4477	495.749868985	570.0
5.4579	495.963753941	552.0
5.4682	496.178976474	505.0
5.4784	496.391360144	600.0
5.4886	496.603000764	561.0
5.4989	496.815964925	524.0
5.5091	497.026120013	587.0
5.5194	497.237589352	555.0
5.5296	497.446269334	560.0
5.5398	497.654219224	515.0
5.5501	497.863469574	513.0
5.5603	498.069959838	539.0
5.5706	498.277741433	577.0
5.5808	498.482782315	544.0
5.591	498.687105837	537.0
5.6013	498.89270714	557.0
5.6115	499.095596489	601.0
5.6218	499.299754651	543.0
5.632	499.501219893	582.0
5.6422	499.701980285	556.0
5.6525	499.903996176	535.0
5.6627	500.103347405	532.0
5.673	500.303945321	563.0
5.6832	500.501897279	546.0
5.6934	500.699156677	542.0
5.7037	500.897649681	542.0
5.7139	501.09352449	571.0
5.7242	501.290624246	538.0
5.7344	501.485124186	556.0
5.7446	501.678943644	503.0
5.7549	501.873975194	515.0
5.7651	502.066434208	511.0
5.7754	502.260096808	513.0
5.7856	502.451204928	518.0
5.7958	502.641644433	506.0
5.8061	502.833274893	522.0
5.8163	503.022377679	477.0
5.8266	503.212663061	515.0
5.8368	503.400438511	542.0
5.847	503.587557005	473.0
5.8573	503.775845685	497.0
5.8675	503.961650771	444.0
5.8778	504.14861783	460.0
5.888	504.333118726	448.0
5.8982	504.516974123	518.0
5.9085	504.701979301	469.0
5.9187	504.884544194	448.0
5.929	505.068250797	463.0
5.9392	505.249534243	417.0
5.9494	505.430183448	465.0
5.9597	505.611962382	414.0
5.9699	505.791343587	442.0
5.9802	505.971846591	478.0
5.9904	506.149968697	448.0
6.0006	506.32746762	462.0
6.0109	506.506076572	441.0
6.0211	506.682329608	395.0
6.0314	506.859684881	416.0
6.0416	507.034700775	428.0
6.0518	507.209104354	384.0
6.0621	507.384598604	377.0
6.0723	507.557778022	408.0
6.0826	507.732040456	420.0
6.0928	507.904004306	385.0
6.103	508.075366519	397.0
6.1133	508.247800384	355.0
6.1235	508.417959784	365.0
6.1338	508.589183314	382.0
6.144	508.758148343	371.0
6.1542	508.926522228	354.0
6.1645	509.095949076	364.0
6.1747	509.263141124	334.0
6.185	509.431378743	315.0
6.1952	509.597397249	365.0
6.2054	509.762834918	329.0
6.2157	509.929307187	312.0
6.2259	510.093583629	313.0
6.2362	510.258887409	290.0
6.2464	510.422010773	278.0
6.2566	510.584563429	298.0
6.2669	510.748132645	282.0
6.2771	510.909544324	277.0
6.2874	511.071965427	303.0
6.2976	511.232244137	289.0
6.3078	511.391962092	258.0
6.3181	511.552678879	269.0
6.3283	511.711275754	255.0
6.3386	511.870864449	248.0
6.3488	512.028348113	240.0
6.359	512.1852808	247.0
6.3693	512.343194901	243.0
6.3795	512.499026058	235.0
6.3898	512.655831739	239.0
6.4	512.810569098	247.0
6.4102	512.964765088	193.0
6.4205	513.119925377	220.0
6.4307	513.273039047	213.0
6.441	513.427110247	158.0
6.4512	513.579149192	180.0
6.4614	513.73065621	181.0
6.4717	513.883110711	195.0
6.4819	514.033554283	198.0
6.4922	514.184938686	184.0
6.5024	514.334326275	175.0
6.5126	514.483191213	134.0
6.5229	514.632987111	176.0
6.5331	514.780807147	167.0
6.5434	514.929551609	167.0
6.5536	515.076334078	141.0
6.5638	515.22260301	155.0
6.5741	515.369786667	129.0
6.5843	515.515028919	121.0
6.5946	515.661179476	154.0
6.6048	515.805402254	128.0
6.615	515.949120451	129.0
6.6253	516.093737422	125.0
6.6355	516.236446843	112.0
6.6458	516.380048729	106.0
6.656	516.521756454	115.0
6.6662	516.662968398	103.0
6.6765	516.805063442	88.0
6.6867	516.945284201	109.0
6.697	517.086381861	99.0
6.7072	517.225618393	91.0
6.7174	517.364367789	106.0
6.7277	517.503984885	81.0
6.7379	517.641760381	101.0
6.7482	517.780397486	90.0
6.7584	517.917205919	86.0
6.7686	518.05353571	71.0
6.7789	518.19071807	63.0
6.7891	518.326090946	65.0
6.7994	518.462310405	73.0
6.8096	518.596733081	61.0
6.8198	518.730685463	81.0
6.8301	518.865475546	55.0
6.8403	518.998487699	70.0
6.8506	519.132331673	60.0
6.8608	519.264410196	59.0
6.871	519.396026627	68.0
6.8813	519.528466151	61.0
6.8915	519.659158749	60.0
6.9018	519.790668663	50.0
6.912	519.920443914	51.0
6.9222	520.04976513	42.0
6.9325	520.179895084	49.0
6.9427	520.308308579	45.0
6.953	520.437525135	36.0
6.9632	520.565037278	34.0
6.9734	520.692103305	34.0
6.9837	520.819963967	40.0
6.9939	520.946138101	47.0
7.0042	521.073101293	27.0
7.0144	521.198389795	41.0
7.0246	521.323239959	40.0
7.0349	521.448870902	31.0
7.0451	521.572844727	30.0
7.0554	521.697593851	31.0
7.0656	521.820697488	26.0
7.0758	521.943370433	22.0
7.0861	522.066810539	27.0
7.0963	522.188622427	23.0
7.1066	522.311196092	30.0
7.1168	522.432152966	18.0
7.127	522.552686658	19.0
7.1373	522.673974134	20.0
7.1475	522.793661784	15.0
7.1578	522.914097928	18.0
7.168	523.032945476	23.0
7.1782	523.151377221	18.0
7.1885	523.270549605	9.0
7.1987	523.388150063	16.0
7.209	523.506485961	25.0
7.2192	523.623260967	28.0
7.2294	523.73962742	19.0
7.2397	523.856721597	20.0
7.2499	523.97227126	23.0
7.2602	524.088543538	13.0
7.2704	524.203282143	21.0
7.2806	524.31761932	17.0
7.2909	524.432671531	16.0
7.3011	524.546206162	10.0
7.3114	524.660450806	11.0
7.3216	524.773188523	9.0
7.3318	524.885531813	12.0
7.3421	524.998577667	13.0
7.3523	525.110132405	14.0
7.3626	525.222384775	7.0
7.3728	525.333156497	13.0
7.383	525.44354067	5.0
7.3933	525.554615154	9.0
7.4035	525.664224527	11.0
7.4138	525.774519366	12.0
7.424	525.883359376	15.0
7.4342	525.991818597	13.0
7.4445	526.10095609	10.0
7.4547	526.208654022	9.0
7.465	526.317025466	9.0
7.4752	526.423967452	8.0
7.4854	526.530535288	10.0
7.4957	526.637769569	10.0
7.5059	526.743589393	13.0
7.5162	526.850070983	6.0
7.5264	526.955148044	12.0
7.5366	527.059857479	3.0
7.5469	527.165221738	9.0
7.5571	527.269196204	11.0
7.5674	527.373820898	7.0
7.5776	527.477065555	6.0
7.5878	527.579948997	3.0
7.5981	527.683475844	6.0
7.6083	527.785637135	10.0
7.6186	527.888437313	4.0
7.6288	527.989881521	4.0
7.639	528.090970813	9.0
7.6493	528.19269229	7.0
7.6595	528.293072024	5.0
7.6698	528.394079505	6.0
7.68	528.493754661	6.0
7.6902	528.593081091	4.0
7.7005	528.693028681	3.0
7.7107	528.791657926	6.0
7.721	528.890903971	6.0
7.7312	528.988840926	3.0
7.7414	529.086435235	9.0
7.7517	529.184639873	7.0
7.7619	529.281549156	5.0
7.7722	529.379064482	5.0
