TL-DOS Lehrstuhlversuch
detector=R1407301
job_number=2015-11-04-004
irradiation_dose [mSv]=0.09

[BEGIN DATA]
time [sec] 	 temperature [K] 	 photoncount 
0.0	86.9339769547	0.0
0.0102	89.0425122081	0.0
0.0205	91.1620763595	1.0
0.0307	93.2515560018	3.0
0.041	95.35196487	1.0
0.0512	97.422561114	1.0
0.0614	99.4838253927	1.0
0.0717	101.555871314	4.0
0.0819	103.598507187	2.0
0.0922	105.651827265	4.0
0.1024	107.676003084	1.0
0.1126	109.69105615	0.0
0.1229	111.716649146	0.0
0.1331	113.713491434	0.0
0.1434	115.720778399	3.0
0.1536	117.699574486	3.0
0.1638	119.669452342	0.0
0.1741	121.649633835	4.0
0.1843	123.601709179	2.0
0.1946	125.563995041	0.0
0.2048	127.498428759	0.0
0.215	129.424144183	1.0
0.2253	131.359932247	0.0
0.2355	133.26824427	0.0
0.2458	135.186537903	0.0
0.256	137.077603806	0.0
0.2662	138.960146869	0.0
0.2765	140.852536755	0.0
0.2867	142.718066582	0.0
0.297	144.593354242	0.0
0.3072	146.442024587	0.0
0.3174	148.282363165	0.0
0.3277	150.132327811	0.0
0.3379	151.956034569	0.0
0.3482	153.789280403	0.0
0.3584	155.59650565	0.0
0.3686	157.395585919	1.0
0.3789	159.204076451	0.0
0.3891	160.986897767	0.0
0.3994	162.779044303	0.0
0.4096	164.545753606	0.0
0.4198	166.30450053	0.0
0.4301	168.072446751	0.0
0.4403	169.81529923	0.0
0.4506	171.567267869	0.0
0.4608	173.294369548	0.0
0.471	175.013687356	0.0
0.4813	176.741998223	0.0
0.4915	178.445777922	0.0
0.5018	180.158469406	0.0
0.512	181.846851419	0.0
0.5222	183.527624067	0.0
0.5325	185.21718816	0.0
0.5427	186.882771046	0.0
0.553	188.557065925	0.0
0.5632	190.207596324	0.0
0.5734	191.850687951	0.0
0.5837	193.502373928	0.0
0.5939	195.130616331	0.0
0.6042	196.767375413	0.0
0.6144	198.380902787	0.0
0.6246	199.98715816	0.0
0.6349	201.601815206	0.0
0.6451	203.193554256	0.0
0.6554	204.793619051	0.0
0.6656	206.370972968	0.0
0.6758	207.941217912	0.0
0.6861	209.519676175	0.0
0.6963	211.075730236	0.0
0.7066	212.639923389	0.0
0.7168	214.181914816	0.0
0.727	215.716956645	0.0
0.7373	217.26002766	0.0
0.7475	218.781196749	0.0
0.7578	220.310322462	0.0
0.768	221.817744185	1.0
0.7782	223.318372114	0.0
0.7885	224.826849222	1.0
0.7987	226.313915422	0.0
0.809	227.808759866	0.0
0.8192	229.2823869	0.0
0.8294	230.749372448	0.0
0.8397	232.224031206	1.0
0.8499	233.677759065	0.0
0.8602	235.139090788	0.0
0.8704	236.579680771	0.0
0.8806	238.013778163	0.0
0.8909	239.45537674	0.0
0.9011	240.876513665	0.0
0.9114	242.305083984	0.0
0.9216	243.71337757	0.0
0.9318	245.115324121	0.0
0.9421	246.524603689	0.0
0.9523	247.913880332	0.0
0.9626	249.310423721	1.0
0.9728	250.687144958	0.0
0.983	252.057661454	0.0
0.9933	253.435346569	0.0
1.0035	254.793477201	0.0
1.0138	256.158711668	0.0
1.024	257.504568373	1.0
1.0342	258.844359439	0.0
1.0445	260.191158413	0.0
1.0547	261.518841293	0.0
1.065	262.853468747	0.0
1.0752	264.169152867	0.0
1.0854	265.478907334	0.0
1.0957	266.795512598	1.0
1.1059	268.093430331	0.0
1.1162	269.398136948	1.0
1.1264	270.684324919	0.0
1.1366	271.964716172	0.0
1.1469	273.251804636	0.0
1.1571	274.520624522	0.0
1.1674	275.796081092	0.0
1.1776	277.053434184	1.0
1.1878	278.305120515	1.0
1.1981	279.563353912	0.0
1.2083	280.803728291	0.0
1.2186	282.050590568	0.0
1.2288	283.279755227	1.0
1.239	284.503380166	0.0
1.2493	285.733405393	0.0
1.2595	286.945971982	0.0
1.2698	288.164881019	0.0
1.28	289.366489196	1.0
1.2902	290.562681848	0.0
1.3005	291.765131302	1.0
1.3107	292.95051352	0.0
1.321	294.142095995	2.0
1.3312	295.316765477	1.0
1.3414	296.486140843	0.0
1.3517	297.661632741	0.0
1.3619	298.820440031	1.0
1.3722	299.985308575	0.0
1.3824	301.133643296	0.0
1.3926	302.27680259	0.0
1.4029	303.425941289	0.0
1.4131	304.558769431	1.0
1.4234	305.69752294	0.0
1.4336	306.820113296	0.0
1.4438	307.937644252	0.0
1.4541	309.061020562	0.0
1.4643	310.168451978	0.0
1.4746	311.281675922	0.0
1.4848	312.379099072	1.0
1.495	313.471576249	1.0
1.5053	314.569767733	1.0
1.5155	315.65237179	2.0
1.5258	316.740638513	0.0
1.536	317.813458678	0.0
1.5462	318.881443752	0.0
1.5565	319.955015026	2.0
1.5667	321.013348325	0.0
1.577	322.077217339	0.0
1.5872	323.12598609	1.0
1.5974	324.170028147	4.0
1.6077	325.219531167	2.0
1.6179	326.254137832	1.0
1.6282	327.294156106	1.0
1.6384	328.319412648	3.0
1.6486	329.340048464	1.0
1.6589	330.366022814	1.0
1.6691	331.377434767	1.0
1.6794	332.394137009	1.0
1.6896	333.396408459	0.0
1.6998	334.394162774	0.0
1.7101	335.397135941	3.0
1.7203	336.385873182	1.0
1.7306	337.37978211	0.0
1.7408	338.359583768	1.0
1.751	339.334969561	0.0
1.7613	340.315457203	2.0
1.7715	341.282028075	2.0
1.7818	342.253654689	3.0
1.792	343.211490303	1.0
1.8022	344.16500905	3.0
1.8125	345.123515269	2.0
1.8227	346.068416715	3.0
1.833	347.01826056	2.0
1.8432	347.954622583	2.0
1.8534	348.886764518	3.0
1.8637	349.823782112	0.0
1.8739	350.747499937	2.0
1.8842	351.676049357	3.0
1.8944	352.591419203	2.0
1.9046	353.502663571	2.0
1.9149	354.418674291	0.0
1.9251	355.321683408	1.0
1.9354	356.229415801	4.0
1.9456	357.12426409	2.0
1.9558	358.015079391	2.0
1.9661	358.910554187	3.0
1.9763	359.79331886	5.0
1.9866	360.68070092	6.0
1.9968	361.555487724	3.0
2.007	362.426331953	5.0
2.0173	363.301731217	3.0
2.0275	364.164705306	2.0
2.0378	365.032193264	2.0
2.048	365.887368337	2.0
2.0582	366.738689224	3.0
2.0685	367.594463027	2.0
2.0787	368.438090213	3.0
2.089	369.286130073	12.0
2.0992	370.122133089	10.0
2.1094	370.954368324	11.0
2.1197	371.790956647	3.0
2.1299	372.615670666	5.0
2.1402	373.444698432	5.0
2.1504	374.261959206	9.0
2.1606	375.075536669	3.0
2.1709	375.893369628	5.0
2.1811	376.699594492	9.0
2.1914	377.510036393	12.0
2.2016	378.308975105	5.0
2.2118	379.104313083	13.0
2.2221	379.903811152	10.0
2.2323	380.691961367	12.0
2.2426	381.484234077	7.0
2.2528	382.265261488	8.0
2.263	383.042768887	13.0
2.2733	383.824343115	12.0
2.2835	384.594823893	8.0
2.2938	385.369334746	10.0
2.304	386.132852406	12.0
2.3142	386.892928969	13.0
2.3245	387.656981187	8.0
2.3347	388.410188658	15.0
2.345	389.167335854	12.0
2.3552	389.913736311	17.0
2.3654	390.656772818	20.0
2.3757	391.40369585	17.0
2.3859	392.140017262	15.0
2.3962	392.880190074	9.0
2.4064	393.609857078	12.0
2.4166	394.336235547	17.0
2.4269	395.066413409	15.0
2.4371	395.786227328	10.0
2.4474	396.509806304	10.0
2.4576	397.223114999	19.0
2.4678	397.933208885	11.0
2.4781	398.647016985	25.0
2.4883	399.350693491	19.0
2.4986	400.058050644	19.0
2.5088	400.755367765	17.0
2.519	401.44954215	22.0
2.5293	402.14734748	21.0
2.5395	402.835248355	17.0
2.5498	403.526747361	13.0
2.56	404.208431422	23.0
2.5702	404.887043202	12.0
2.5805	405.569204526	14.0
2.5907	406.241683441	9.0
2.601	406.917679823	17.0
2.6112	407.584081298	16.0
2.6214	408.247479369	15.0
2.6317	408.914347409	13.0
2.6419	409.571750108	9.0
2.6522	410.232591415	11.0
2.6624	410.884052923	12.0
2.6726	411.532578361	11.0
2.6829	412.184495973	6.0
2.6931	412.827160447	12.0
2.7034	413.47318644	11.0
2.7136	414.110042918	8.0
2.7238	414.744029149	6.0
2.7341	415.381331507	3.0
2.7443	416.00958817	12.0
2.7546	416.641130991	10.0
2.7648	417.263709868	9.0
2.775	417.883482845	7.0
2.7853	418.506497605	11.0
2.7955	419.120669465	11.0
2.8058	419.73805381	20.0
2.816	420.346675173	12.0
2.8262	420.952553541	12.0
2.8365	421.561601015	12.0
2.8467	422.162003837	11.0
2.857	422.765547124	11.0
2.8672	423.360523884	11.0
2.8774	423.952819145	11.0
2.8877	424.548212463	10.0
2.8979	425.135154933	6.0
2.9082	425.725167463	13.0
2.9184	426.306805517	12.0
2.9286	426.885822188	12.0
2.9389	427.467867462	12.0
2.9491	428.041651346	14.0
2.9594	428.618436462	4.0
2.9696	429.187034849	15.0
2.9798	429.753070622	20.0
2.9901	430.322067099	12.0
3.0003	430.882987398	10.0
3.0106	431.446841644	11.0
3.0208	432.002692699	14.0
3.031	432.55603859	10.0
3.0413	433.11227881	18.0
3.0515	433.66062391	14.0
3.0618	434.211837183	12.0
3.072	434.755226686	13.0
3.0822	435.296167188	10.0
3.0925	435.839937132	19.0
3.1027	436.375988955	16.0
3.113	436.914844649	14.0
3.1232	437.446051975	22.0
3.1334	437.974865203	20.0
3.1437	438.50644444	10.0
3.1539	439.030478588	18.0
3.1642	439.557253747	15.0
3.1744	440.076552005	15.0
3.1846	440.593509839	20.0
3.1949	441.113171671	12.0
3.2051	441.625457567	13.0
3.2154	442.140423023	19.0
3.2256	442.648079202	20.0
3.2358	443.153447426	5.0
3.2461	443.661459027	13.0
3.2563	444.162260053	18.0
3.2666	444.665680566	16.0
3.2768	445.161955668	17.0
3.287	445.655994108	20.0
3.2973	446.152616664	15.0
3.3075	446.642190297	13.0
3.3178	447.134324692	17.0
3.328	447.619473868	14.0
3.3382	448.102436525	16.0
3.3485	448.587925366	17.0
3.3587	449.066523312	17.0
3.369	449.547624611	18.0
3.3792	450.02189729	15.0
3.3894	450.494032472	14.0
3.3997	450.968637202	14.0
3.4099	451.436505523	18.0
3.4202	451.906821075	14.0
3.4304	452.370461098	17.0
3.4406	452.832011543	16.0
3.4509	453.295976172	14.0
3.4611	453.753355415	19.0
3.4714	454.213127025	26.0
3.4816	454.666372763	17.0
3.4918	455.117575769	19.0
3.5021	455.571138836	13.0
3.5123	456.018264154	17.0
3.5226	456.467728204	10.0
3.5328	456.910812685	16.0
3.543	457.351900231	12.0
3.5533	457.795294927	13.0
3.5635	458.232396201	14.0
3.5738	458.671783776	10.0
3.584	459.104934805	19.0
3.5942	459.536133666	22.0
3.6045	459.969587955	11.0
3.6147	460.396889913	11.0
3.625	460.826426916	16.0
3.6352	461.249867189	10.0
3.6454	461.671399059	12.0
3.6557	462.095135794	12.0
3.6659	462.512858125	7.0
3.6762	462.932765394	9.0
3.6864	463.346712615	2.0
3.6966	463.758794219	14.0
3.7069	464.173031255	18.0
3.7171	464.581388724	15.0
3.7274	464.991882147	18.0
3.7376	465.39654914	7.0
3.7478	465.79939234	14.0
3.7581	466.20434265	13.0
3.7683	466.603545208	18.0
3.7786	467.004835833	12.0
3.7888	467.400430649	16.0
3.799	467.794242561	14.0
3.8093	468.190114343	17.0
3.8195	468.580367231	14.0
3.8298	468.972661374	13.0
3.84	469.359387402	12.0
3.8502	469.744370496	15.0
3.8605	470.131367281	12.0
3.8707	470.512871141	14.0
3.881	470.896370493	13.0
3.8912	471.274426562	19.0
3.9014	471.65077877	6.0
3.9117	472.029099525	10.0
3.9219	472.4020505	13.0
3.9322	472.776952231	13.0
3.9424	473.14653271	18.0
3.9526	473.514447527	16.0
3.9629	473.884286759	11.0
3.9731	474.248876595	16.0
3.9834	474.615373453	11.0
3.9936	474.976668356	13.0
4.0038	475.33633494	24.0
4.0141	475.697882795	10.0
4.0243	476.054298939	7.0
4.0346	476.412579352	11.0
4.0448	476.765774432	11.0
4.055	477.117377698	12.0
4.0653	477.470820059	17.0
4.0755	477.819245757	12.0
4.0858	478.169493928	16.0
4.096	478.514770774	12.0
4.1062	478.858491493	13.0
4.1165	479.204010076	8.0
4.1267	479.544624464	14.0
4.137	479.887020468	8.0
4.1472	480.224556597	6.0
4.1574	480.560571486	12.0
4.1677	480.898343934	10.0
4.1779	481.231322132	13.0
4.1882	481.566042005	10.0
4.1984	481.896010957	6.0
4.2086	482.224492772	11.0
4.2189	482.554692743	13.0
4.2291	482.880205947	13.0
4.2394	483.20742178	11.0
4.2496	483.529993201	13.0
4.2598	483.851110826	11.0
4.2701	484.173908087	13.0
4.2803	484.492123653	14.0
4.2906	484.812003677	10.0
4.3008	485.127343412	7.0
4.311	485.441261943	14.0
4.3213	485.756822455	12.0
4.3315	486.067903988	12.0
4.3418	486.380612663	13.0
4.352	486.688882838	8.0
4.3622	486.995763671	11.0
4.3725	487.304249673	13.0
4.3827	487.608357111	15.0
4.393	487.914055211	8.0
4.4032	488.215414317	6.0
4.4134	488.515415229	10.0
4.4237	488.816985324	12.0
4.4339	489.114275017	9.0
4.4442	489.413119712	9.0
4.4544	489.707722688	10.0
4.4646	490.000997919	16.0
4.4749	490.295807154	12.0
4.4851	490.586431948	11.0
4.4954	490.878576883	11.0
4.5056	491.166575194	11.0
4.5158	491.453275526	15.0
4.5261	491.741475471	5.0
4.5363	492.025584786	14.0
4.5466	492.311180163	9.0
4.5568	492.592721877	10.0
4.567	492.872994712	10.0
4.5773	493.15473354	18.0
4.5875	493.432473446	7.0
4.5978	493.711666097	13.0
4.608	493.986895965	15.0
4.6182	494.2608854	11.0
4.6285	494.536307963	13.0
4.6387	494.807821254	5.0
4.649	495.080754722	16.0
4.6592	495.349814247	6.0
4.6694	495.617661149	15.0
4.6797	495.88690905	9.0
4.6899	496.152335321	7.0
4.7002	496.419149929	11.0
4.7104	496.682177444	17.0
4.7206	496.944019521	12.0
4.7309	497.207231189	7.0
4.7411	497.466706903	15.0
4.7514	497.72753983	10.0
4.7616	497.984670566	12.0
4.7718	498.24064244	12.0
4.7821	498.4979532	8.0
4.7923	498.751611761	14.0
4.8026	499.006597109	12.0
4.8128	499.257963265	16.0
4.823	499.508196539	12.0
4.8333	499.759738683	13.0
4.8435	500.007710507	3.0
4.8538	500.256979371	5.0
4.864	500.502710183	8.0
4.8742	500.74733351	9.0
4.8845	500.993236363	4.0
4.8947	501.23564894	10.0
4.905	501.479329478	8.0
4.9152	501.719551283	12.0
4.9254	501.958690432	13.0
4.9357	502.199080422	8.0
4.9459	502.436058382	10.0
4.9562	502.674275879	8.0
4.9664	502.909112182	13.0
4.9766	503.142890102	11.0
4.9869	503.377890821	11.0
4.9971	503.609556003	7.0
5.0074	503.842432933	12.0
5.0176	504.072004472	11.0
5.0278	504.300541356	8.0
5.0381	504.530273624	8.0
5.0483	504.756745135	16.0
5.0586	504.984401228	6.0
5.0688	505.208826033	9.0
5.079	505.432239378	8.0
5.0893	505.656821309	13.0
5.0995	505.878215585	14.0
5.1098	506.100767886	12.0
5.12	506.320161341	6.0
5.1302	506.538566012	9.0
5.1405	506.758113069	9.0
5.1507	506.974543937	4.0
5.161	507.192106866	11.0
5.1712	507.406581768	9.0
5.1814	507.620090053	5.0
5.1917	507.834715115	7.0
5.2019	508.046293847	10.0
5.2122	508.258979262	6.0
5.2224	508.468645879	6.0
5.2326	508.67736755	5.0
5.2429	508.88718096	15.0
5.2531	509.094016336	9.0
5.2634	509.301933585	6.0
5.2736	509.506899714	7.0
5.2838	509.710942081	5.0
5.2941	509.916051712	3.0
5.3043	510.118250073	11.0
5.3146	510.321506053	7.0
5.3248	510.521877073	6.0
5.335	510.721345041	8.0
5.3453	510.921856346	7.0
5.3555	511.119521649	3.0
5.3658	511.318220859	9.0
5.376	511.514099788	3.0
5.3862	511.70909591	9.0
5.3965	511.905111978	4.0
5.4067	512.098345849	3.0
5.417	512.292590447	1.0
5.4272	512.484077992	11.0
5.4374	512.674702522	4.0
5.4477	512.866324132	2.0
5.4579	513.055225917	8.0
5.4682	513.245115772	6.0
5.4784	513.432310382	4.0
5.4886	513.618661326	3.0
5.4989	513.805986996	3.0
5.5091	513.990653817	2.0
5.5194	514.176286556	5.0
5.5296	514.359284476	4.0
5.5398	514.541457642	3.0
5.5501	514.724583682	4.0
5.5603	514.905110482	3.0
5.5706	515.086581546	5.0
5.5808	515.265476858	6.0
5.591	515.443565908	4.0
5.6013	515.62258647	8.0
5.6115	515.799066064	4.0
5.6218	515.976468751	3.0
5.632	516.151353433	1.0
5.6422	516.325449928	7.0
5.6525	516.500457052	3.0
5.6627	516.672980172	3.0
5.673	516.846405692	3.0
5.6832	517.017369658	1.0
5.6934	517.187563106	0.0
5.7037	517.358646768	5.0
5.7139	517.527302116	2.0
5.7242	517.696839631	2.0
5.7344	517.863970778	2.0
5.7446	518.030348682	3.0
5.7549	518.197596842	2.0
5.7651	518.362471127	3.0
5.7754	518.528207804	2.0
5.7856	518.69159206	0.0
5.7958	518.854239959	2.0
5.8061	519.017738604	0.0
5.8163	519.178916595	2.0
5.8266	519.340937643	4.0
5.8368	519.500659008	1.0
5.847	519.659660526	3.0
5.8573	519.819493717	2.0
5.8675	519.977058279	0.0
5.8778	520.135446998	0.0
5.888	520.291587591	2.0
5.8982	520.447024475	0.0
5.9085	520.603274386	0.0
5.9187	520.757306529	1.0
5.929	520.912144353	0.0
5.9392	521.06478445	0.0
5.9494	521.216736615	1.0
5.9597	521.36948358	2.0
5.9699	521.520062497	2.0
5.9802	521.671429031	3.0
5.9904	521.820647111	1.0
6.0006	521.96919268	2.0
6.0109	522.118515231	1.0
6.0211	522.265718339	0.0
6.0314	522.413691407	1.0
6.0416	522.559564186	1.0
6.0518	522.704779531	1.0
6.0621	522.850754439	0.0
6.0723	522.99465742	3.0
6.0826	523.139313099	3.0
6.0928	523.281915576	0.0
6.103	523.423875357	1.0
6.1133	523.566577673	0.0
6.1235	523.707254512	1.0
6.1338	523.848667175	3.0
6.144	523.988072665	0.0
6.1542	524.126849869	0.0
6.1645	524.266352961	0.0
6.1747	524.403875984	1.0
6.185	524.542118334	2.0
6.1952	524.678398511	0.0
6.2054	524.814064487	1.0
6.2157	524.950440077	1.0
6.2259	525.08487999	1.0
6.2362	525.220023104	0.0
6.2464	525.353248033	0.0
6.2566	525.485872531	0.0
6.2669	525.619190735	1.0
6.2771	525.750616657	1.0
6.2874	525.882730015	1.0
6.2976	526.012968192	0.0
6.3078	526.142619399	1.0
6.3181	526.27294876	0.0
6.3283	526.401428261	0.0
6.3386	526.530579787	2.0
6.3488	526.657898172	1.0
6.359	526.784642746	0.0
6.3693	526.912050269	0.0
6.3795	527.037649406	0.0
6.3898	527.163905501	1.0
6.4	527.288369551	1.0
6.4102	527.412272655	3.0
6.4205	527.536823846	0.0
6.4307	527.659607192	1.0
6.441	527.783032768	1.0
6.4512	527.904706475	0.0
6.4614	528.025831812	3.0
6.4717	528.147590706	0.0
6.4819	528.267621388	0.0
6.4922	528.388279903	0.0
6.5024	528.507225823	0.0
6.5126	528.625635667	0.0
6.5229	528.744664864	0.0
6.5331	528.862004594	2.0
6.5434	528.979958081	0.0
6.5536	529.096237369	0.0
6.5638	529.211992598	0.0
6.5741	529.328353295	0.0
6.5843	529.443062401	2.0
6.5946	529.558371505	0.0
6.6048	529.672043942	1.0
6.615	529.78520407	1.0
6.6253	529.898956092	1.0
6.6355	530.01109355	0.0
6.6458	530.123817554	0.0
6.656	530.234941584	0.0
6.6662	530.345564789	0.0
6.6765	530.45676662	1.0
6.6867	530.566390083	0.0
6.697	530.676586942	1.0
6.7072	530.785219697	0.0
6.7174	530.893362855	1.0
6.7277	531.002071667	0.0
6.7379	531.109237496	2.0
6.7482	531.216963866	0.0
6.7584	531.323161197	1.0
6.7686	531.428879909	1.0
6.7789	531.535151592	1.0
6.7891	531.639914884	0.0
6.7994	531.745226151	1.0
6.8096	531.849042658	0.0
6.8198	531.952391276	0.0
6.8301	532.056280468	0.0
6.8403	532.158695085	0.0
6.8506	532.261645393	1.0
6.8608	532.363134452	0.0
6.871	532.46416611	1.0
6.8813	532.565726224	1.0
6.8915	532.665844822	0.0
6.9018	532.7664871	0.0
6.912	532.865700889	0.0
6.9222	532.964467532	0.0
6.9325	533.063750783	1.0
6.9427	533.161624835	0.0
6.953	533.260010827	0.0
6.9632	533.357000355	0.0
6.9734	533.453552761	0.0
6.9837	533.550610195	0.0
6.9939	533.646290021	0.0
7.0042	533.74247031	0.0
7.0144	533.837285443	0.0
7.0246	533.931673254	1.0
7.0349	534.026554769	0.0
7.0451	534.120089562	0.0
7.0554	534.214113598	1.0
7.0656	534.306803083	1.0
7.0758	534.399074826	2.0
7.0861	534.491829205	1.0
7.0963	534.583267054	1.0
7.1066	534.675183177	0.0
7.1168	534.765794669	0.0
7.127	534.855997783	1.0
7.1373	534.946672714	0.0
7.1475	535.03606063	0.0
7.1578	535.125916098	0.0
7.168	535.214496182	0.0
7.1782	535.302677045	0.0
7.1885	535.391319147	0.0
7.1987	535.478703086	1.0
7.209	535.566544097	1.0
7.2192	535.653138316	0.0
7.2294	535.739342263	2.0
7.2397	535.825997109	1.0
7.2499	535.911422	1.0
7.2602	535.997293714	2.0
7.2704	536.081946589	1.0
7.2806	536.166217941	0.0
7.2909	536.250930084	2.0
7.3011	536.334439845	2.0
7.3114	536.418386412	0.0
7.3216	536.501141465	0.0
7.3318	536.58352355	0.0
7.3421	536.666336542	1.0
7.3523	536.747974109	1.0
7.3626	536.830038689	0.0
7.3728	536.910938467	1.0
7.383	536.991473638	1.0
7.3933	537.072430057	0.0
7.4035	537.152237402	0.0
7.4138	537.232462187	2.0
7.424	537.311548284	3.0
7.4342	537.390277948	0.0
7.4445	537.469419415	0.0
7.4547	537.54743757	0.0
7.465	537.625863806	0.0
7.4752	537.703176882	2.0
7.4854	537.780141516	0.0
7.4957	537.857508721	1.0
7.5059	537.933777797	1.0
7.5162	538.010445806	1.0
7.5264	538.08602561	1.0
7.5366	538.161264784	0.0
7.5469	538.236897503	3.0
7.5571	538.311456713	0.0
7.5674	538.386405912	0.0
7.5776	538.460291303	1.0
7.5878	538.533843699	1.0
7.5981	538.607780819	0.0
7.6083	538.680668495	0.0
7.6186	538.753937418	2.0
7.6288	538.826166382	1.0
7.639	538.898069817	1.0
7.6493	538.97034935	0.0
7.6595	539.041602967	0.0
7.6698	539.113229284	0.0
7.68	539.183838956	1.0
7.6902	539.254130397	0.0
7.7005	539.324789505	0.0
7.7107	539.394445697	1.0
7.721	539.464466232	1.0
7.7312	539.533492915	0.0
7.7414	539.602208502	1.0
7.7517	539.671283513	0.0
7.7619	539.739378092	0.0
7.7722	539.807828846	4.0
7.7824	539.875308029	0.0
7.7926	539.94248309	0.0
7.8029	540.010009517	0.0
7.8131	540.076577492	0.0
7.8234	540.143493658	0.0
7.8336	540.209460034	1.0
7.8438	540.275129106	0.0
7.8541	540.341141667	3.0
7.8643	540.406217264	2.0
7.8746	540.471633245	1.0
7.8848	540.536120729	0.0
7.895	540.600317576	0.0
7.9053	540.664850209	0.0
7.9155	540.728466885	0.0
7.9258	540.792416314	3.0
7.936	540.855458062	1.0
7.9462	540.918215687	0.0
7.9565	540.981301572	1.0
7.9667	541.043492034	0.0
7.977	541.106007789	0.0
7.9872	541.167636212	2.0
7.9974	541.228986883	0.0
8.0077	541.290658454	1.0
8.0179	541.351454676	1.0
8.0282	541.412568898	0.0
8.0384	541.472815682	1.0
8.0486	541.53279094	0.0
8.0589	541.593079904	1.0
8.0691	541.652513143	0.0
8.0794	541.712257254	1.0
8.0896	541.771153373	0.0
