TL-DOS Lehrstuhlversuch
detector=R1407602
job_number=2015-10-22-012
irradiation_dose [mSv]=5.0

[BEGIN DATA]
time [sec] 	 temperature [K] 	 photoncount 
0.0	137.546480385	0.0
0.0102	139.151137576	0.0
0.0205	140.765248411	3.0
0.0307	142.357494983	1.0
0.041	143.959122083	0.0
0.0512	145.539054021	0.0
0.0614	147.112894209	0.0
0.0717	148.696006486	2.0
0.0819	150.257674397	2.0
0.0922	151.828542687	2.0
0.1024	153.378132464	0.0
0.1126	154.92174748	0.0
0.1229	156.474456519	0.0
0.1331	158.006133024	1.0
0.1434	159.546833217	4.0
0.1536	161.066663546	1.0
0.1638	162.580633857	1.0
0.1741	164.103523543	4.0
0.1843	165.605784619	1.0
0.1946	167.116896086	2.0
0.2048	168.607538488	1.0
0.215	170.092433414	3.0
0.2253	171.586076418	0.0
0.2355	173.059486981	1.0
0.2458	174.541577965	1.0
0.256	176.003592987	1.0
0.2662	177.459970911	0.0
0.2765	178.924928909	1.0
0.2867	180.370043025	0.0
0.297	181.823670856	0.0
0.3072	183.257608279	0.0
0.3174	184.686016862	0.0
0.3277	186.122840743	0.0
0.3379	187.540201836	1.0
0.3482	188.965913142	0.0
0.3584	190.372312188	0.0
0.3686	191.773288575	1.0
0.3789	193.182518645	0.0
0.3891	194.572659706	0.0
0.3994	195.970990616	0.0
0.4096	197.350380152	0.0
0.4198	198.72445117	1.0
0.4301	200.106617362	0.0
0.4403	201.470061143	0.0
0.4506	202.841537489	0.0
0.4608	204.194436227	0.0
0.471	205.542118586	0.0
0.4813	206.897740654	0.0
0.4915	208.23499987	0.0
0.5018	209.580137387	0.0
0.512	210.907054074	0.0
0.5222	212.228854561	0.0
0.5325	213.558442277	0.0
0.5427	214.870019795	0.0
0.553	216.189324314	0.0
0.5632	217.490757928	0.0
0.5734	218.787173598	1.0
0.5837	220.091226945	0.0
0.5939	221.377615975	0.0
0.6042	222.671583611	0.0
0.6144	223.948023548	0.0
0.6246	225.21954191	0.0
0.6349	226.498551268	0.0
0.6451	227.760235548	0.0
0.6554	229.029352889	1.0
0.6656	230.281279145	0.0
0.6758	231.528378344	0.0
0.6861	232.782824677	0.0
0.6963	234.020278655	0.0
0.7066	235.265022944	0.0
0.7168	236.492906299	0.0
0.727	237.716055298	0.0
0.7373	238.946410332	0.0
0.7475	240.160099344	0.0
0.7578	241.380938659	0.0
0.768	242.585240849	0.0
0.7782	243.784899606	1.0
0.7885	244.991626007	0.0
0.7987	246.182006454	0.0
0.809	247.379399883	0.0
0.8192	248.560573778	0.0
0.8294	249.737193416	1.0
0.8397	250.920744967	0.0
0.8499	252.088264482	0.0
0.8602	253.262662297	0.0
0.8704	254.421152071	0.0
0.8806	255.57517505	1.0
0.8909	256.735996816	0.0
0.9011	257.881094437	0.0
0.9114	259.032938264	0.0
0.9216	260.169179557	0.0
0.9318	261.30103984	1.0
0.9421	262.439568342	0.0
0.9523	263.562674676	0.0
0.9626	264.692397656	0.0
0.9728	265.806817746	1.0
0.983	266.916940961	0.0
0.9933	268.033604334	0.0
1.0035	269.135141718	0.0
1.0138	270.243168677	0.0
1.024	271.336186633	0.0
1.0342	272.424990235	2.0
1.0445	273.520208393	0.0
1.0547	274.600591052	0.0
1.065	275.687338656	0.0
1.0752	276.759365501	0.0
1.0854	277.827258927	1.0
1.0957	278.901443719	0.0
1.1059	279.961077925	0.0
1.1162	281.026954837	1.0
1.1264	282.0783937	2.0
1.1366	283.125778524	1.0
1.1469	284.179333891	1.0
1.1571	285.218618111	0.0
1.1674	286.264025148	0.0
1.1776	287.295271415	0.0
1.1878	288.3225415	0.0
1.1981	289.355863623	0.0
1.2083	290.375188673	0.0
1.2186	291.400518954	1.0
1.2288	292.411960418	1.0
1.239	293.419502062	0.0
1.2493	294.432979516	0.0
1.2595	295.432728707	3.0
1.2698	296.4383678	1.0
1.28	297.430384806	3.0
1.2902	298.418576888	1.0
1.3005	299.412590784	2.0
1.3107	300.393140065	2.0
1.321	301.379466134	0.0
1.3312	302.352431725	0.0
1.3414	303.321645847	2.0
1.3517	304.296569978	1.0
1.3619	305.258288078	1.0
1.3722	306.225672024	1.0
1.3824	307.179952076	2.0
1.3926	308.130552707	3.0
1.4029	309.086753686	2.0
1.4131	310.030002252	3.0
1.4234	310.978807854	3.0
1.4336	311.914761218	1.0
1.4438	312.847105823	2.0
1.4541	313.784943224	6.0
1.4643	314.710076959	5.0
1.4746	315.640661008	1.0
1.4848	316.558639644	6.0
1.495	317.473078825	4.0
1.5053	318.392905314	5.0
1.5155	319.300272109	5.0
1.5258	320.212984546	4.0
1.536	321.113333652	6.0
1.5462	322.010211279	7.0
1.5565	322.912372752	3.0
1.5667	323.802313815	7.0
1.577	324.697497858	5.0
1.5872	325.580556006	5.0
1.5974	326.460209343	7.0
1.6077	327.345045051	6.0
1.6179	328.217895039	9.0
1.6282	329.095887318	7.0
1.6384	329.961986575	6.0
1.6486	330.82474641	8.0
1.6589	331.69258909	8.0
1.6691	332.548676232	11.0
1.6794	333.409806909	6.0
1.6896	334.259272967	15.0
1.6998	335.105463734	15.0
1.7101	335.956639733	15.0
1.7203	336.796285955	15.0
1.7306	337.640878853	23.0
1.7408	338.474031147	17.0
1.751	339.303971052	19.0
1.7613	340.138800448	21.0
1.7715	340.962321494	21.0
1.7818	341.790694215	19.0
1.792	342.607846047	19.0
1.8022	343.421847183	26.0
1.8125	344.240643908	26.0
1.8227	345.048349458	26.0
1.833	345.860813507	38.0
1.8432	346.662272161	38.0
1.8534	347.460640627	34.0
1.8637	348.263712585	35.0
1.8739	349.05590637	31.0
1.8842	349.852767269	45.0
1.8944	350.638834129	34.0
1.9046	351.421870147	44.0
1.9149	352.209519327	62.0
1.9251	352.986499247	39.0
1.9354	353.76805665	49.0
1.9456	354.53902731	55.0
1.9558	355.307025335	47.0
1.9661	356.079547928	62.0
1.9763	356.841606161	68.0
1.9866	357.608153968	60.0
1.9968	358.364318347	70.0
2.007	359.117567179	68.0
2.0173	359.875253687	79.0
2.0275	360.622676799	96.0
2.0378	361.374503265	96.0
2.048	362.116145714	94.0
2.0582	362.854928608	110.0
2.0685	363.598063953	97.0
2.0787	364.331133009	115.0
2.089	365.068520852	112.0
2.0992	365.795920261	139.0
2.1094	366.520515032	124.0
2.1197	367.249378665	137.0
2.1299	367.96836933	135.0
2.1402	368.691595841	149.0
2.1504	369.405025742	156.0
2.1606	370.115704869	132.0
2.1709	370.830570875	168.0
2.1811	371.535753521	175.0
2.1914	372.245090664	168.0
2.2016	372.944819339	215.0
2.2118	373.641850067	210.0
2.2221	374.342987267	227.0
2.2323	375.034627072	245.0
2.2426	375.73034159	257.0
2.2528	376.416632167	234.0
2.263	377.10027661	274.0
2.2733	377.787948661	258.0
2.2835	378.466305713	304.0
2.2938	379.148659223	313.0
2.304	379.821769777	322.0
2.3142	380.492285015	365.0
2.3245	381.166750513	338.0
2.3347	381.832079903	345.0
2.345	382.501329	360.0
2.3552	383.16151265	438.0
2.3654	383.819150826	391.0
2.3757	384.480663398	413.0
2.3859	385.133215318	405.0
2.3962	385.78961167	471.0
2.4064	386.437116672	453.0
2.4166	387.082125087	480.0
2.4269	387.730933491	545.0
2.4371	388.37095333	523.0
2.4474	389.014743769	534.0
2.4576	389.649813614	554.0
2.4678	390.282434819	565.0
2.4781	390.918783034	563.0
2.4883	391.546511467	630.0
2.4986	392.177938086	628.0
2.5088	392.800811589	636.0
2.519	393.421283476	695.0
2.5293	394.045410798	675.0
2.5395	394.661083878	644.0
2.5498	395.280384121	730.0
2.56	395.891295509	706.0
2.5702	396.499851402	712.0
2.5805	397.111992529	761.0
2.5907	397.715841776	790.0
2.601	398.323248527	814.0
2.6112	398.922427528	767.0
2.6214	399.519296272	838.0
2.6317	400.119681396	767.0
2.6419	400.711933883	813.0
2.6522	401.307675553	812.0
2.6624	401.895347485	819.0
2.6726	402.480753528	827.0
2.6829	403.06960842	831.0
2.6931	403.650486859	834.0
2.7034	404.234787474	809.0
2.7136	404.811173327	787.0
2.7238	405.385336806	805.0
2.7341	405.9628829	836.0
2.7443	406.532605728	812.0
2.7546	407.105685009	831.0
2.7648	407.671001529	799.0
2.775	408.234138356	775.0
2.7853	408.800592835	786.0
2.7955	409.359374291	711.0
2.8058	409.921447741	734.0
2.816	410.475907512	731.0
2.8262	411.028229449	754.0
2.8365	411.583805325	704.0
2.8467	412.131855536	675.0
2.857	412.683134519	671.0
2.8672	413.226946041	683.0
2.8774	413.768660787	643.0
2.8877	414.31356698	604.0
2.8979	414.851092036	604.0
2.9082	415.391783856	592.0
2.9184	415.925151627	555.0
2.9286	416.456462889	549.0
2.9389	416.990904307	542.0
2.9491	417.518106342	537.0
2.9594	418.048414323	480.0
2.9696	418.571538911	483.0
2.9798	419.092646486	452.0
2.9901	419.616824103	479.0
3.0003	420.133901366	470.0
3.0106	420.654024928	441.0
3.0208	421.167103051	455.0
3.031	421.678202897	444.0
3.0413	422.192313825	462.0
3.0515	422.699460761	451.0
3.0618	423.209595492	420.0
3.072	423.71282009	412.0
3.0822	424.214104403	430.0
3.0925	424.718341971	432.0
3.1027	425.215749289	471.0
3.113	425.716087021	436.0
3.1232	426.209647329	457.0
3.1334	426.701304613	466.0
3.1437	427.195858437	497.0
3.1539	427.683713183	497.0
3.1642	428.174442066	501.0
3.1744	428.658523682	514.0
3.1846	429.140738822	523.0
3.1949	429.625794875	528.0
3.2051	430.104280504	540.0
3.2154	430.585585073	569.0
3.2256	431.060370034	578.0
3.2358	431.533324364	638.0
3.2461	432.009065048	592.0
3.2563	432.478361491	660.0
3.2666	432.950422737	638.0
3.2768	433.416089582	702.0
3.287	433.879960954	700.0
3.2973	434.346565168	680.0
3.3075	434.806848901	688.0
3.3178	435.26984434	670.0
3.328	435.72656818	666.0
3.3382	436.181531029	722.0
3.3485	436.639174237	723.0
3.3587	437.090618346	742.0
3.369	437.544722084	793.0
3.3792	437.992674668	765.0
3.3894	438.43890008	803.0
3.3997	438.887754374	806.0
3.4099	439.330528623	795.0
3.4202	439.775911422	807.0
3.4304	440.2152612	804.0
3.4406	440.652916974	825.0
3.4509	441.093151144	844.0
3.4611	441.527422034	899.0
3.4714	441.964251379	861.0
3.4816	442.395163564	841.0
3.4918	442.824414278	845.0
3.5021	443.256193872	900.0
3.5123	443.682124708	907.0
3.5226	444.110564864	889.0
3.5328	444.533201498	863.0
3.543	444.95420857	949.0
3.5533	445.377695955	904.0
3.5635	445.795446905	916.0
3.5738	446.215658985	905.0
3.584	446.630178998	896.0
3.5942	447.043100744	929.0
3.6045	447.458455169	891.0
3.6147	447.868183327	952.0
3.625	448.280325349	882.0
3.6352	448.686884618	922.0
3.6454	449.091876315	888.0
3.6557	449.499253971	897.0
3.6659	449.901113412	899.0
3.6762	450.305340359	901.0
3.6864	450.704091768	854.0
3.6966	451.10130571	889.0
3.7069	451.50085979	844.0
3.7171	451.89500163	884.0
3.7274	452.291465508	830.0
3.7376	452.682559006	817.0
3.7478	453.072144562	834.0
3.7581	453.464025315	850.0
3.7683	453.850597769	796.0
3.7786	454.239447667	831.0
3.7888	454.623030321	765.0
3.799	455.005133993	832.0
3.8093	455.389488783	811.0
3.8195	455.768637218	783.0
3.8298	456.15001936	777.0
3.84	456.526235414	804.0
3.8502	456.901000889	765.0
3.8605	457.277974251	743.0
3.8707	457.649841244	747.0
3.881	458.023899046	802.0
3.8912	458.392889973	740.0
3.9014	458.76045818	738.0
3.9117	459.130191871	714.0
3.9219	459.49491726	761.0
3.9322	459.861791384	709.0
3.9424	460.223695941	729.0
3.9526	460.584205101	672.0
3.9629	460.946838157	723.0
3.9731	461.304559095	696.0
3.9834	461.664387502	706.0
3.9936	462.019341781	740.0
4.0038	462.372927461	715.0
4.0141	462.728596248	714.0
4.0243	463.079447253	644.0
4.0346	463.432365253	743.0
4.0448	463.780502732	692.0
4.055	464.127297896	721.0
4.0653	464.476136161	744.0
4.0755	464.820249168	716.0
4.0858	465.166389475	698.0
4.096	465.507841069	687.0
4.1062	465.847976126	700.0
4.1165	466.190115048	715.0
4.1267	466.527619458	724.0
4.137	466.867112235	704.0
4.1472	467.202006344	706.0
4.1574	467.535609201	681.0
4.1677	467.871177438	753.0
4.1779	468.202200168	693.0
4.1882	468.535173079	757.0
4.1984	468.863635638	712.0
4.2086	469.190831743	756.0
4.2189	469.519955484	768.0
4.2291	469.844621013	698.0
4.2394	470.17119927	708.0
4.2496	470.493353796	679.0
4.2598	470.814266189	726.0
4.2701	471.137069198	714.0
4.2803	471.455499614	697.0
4.2906	471.775806025	699.0
4.3008	472.091773661	721.0
4.311	472.406523019	704.0
4.3213	472.723126685	745.0
4.3315	473.035441732	722.0
4.3418	473.349596746	712.0
4.352	473.659496309	785.0
4.3622	473.968200992	722.0
4.3725	474.278724371	768.0
4.3827	474.585041493	709.0
4.393	474.893163245	758.0
4.4032	475.197111272	663.0
4.4134	475.499887366	715.0
4.4237	475.804447228	675.0
4.4339	476.104881613	717.0
4.4442	476.407085971	742.0
4.4544	476.70519676	737.0
4.4646	477.002158121	719.0
4.4749	477.300868994	710.0
4.4851	477.595533619	712.0
4.4954	477.891934225	654.0
4.5056	478.184319877	681.0
4.5158	478.475578177	655.0
4.5261	478.768552389	666.0
4.5363	479.057558061	689.0
4.5466	479.348266374	657.0
4.5568	479.63503684	627.0
4.567	479.920701603	649.0
4.5773	480.208049326	663.0
4.5875	480.491504722	703.0
4.5978	480.776630062	643.0
4.608	481.057893179	666.0
4.6182	481.338071828	665.0
4.6285	481.619901116	677.0
4.6387	481.897912829	620.0
4.649	482.177562415	672.0
4.6592	482.45342395	673.0
4.6694	482.728221845	643.0
4.6797	483.004638679	643.0
4.6899	483.277311253	626.0
4.7002	483.551590245	685.0
4.7104	483.822153935	639.0
4.7206	484.091674411	605.0
4.7309	484.362782735	681.0
4.7411	484.630218707	602.0
4.7514	484.899230245	598.0
4.7616	485.164597834	655.0
4.7718	485.428942243	634.0
4.7821	485.694844006	613.0
4.7923	485.957143942	627.0
4.8026	486.220989188	564.0
4.8128	486.481260464	589.0
4.823	486.740528211	650.0
4.8333	487.001323403	644.0
4.8435	487.258585941	593.0
4.8538	487.517364111	606.0
4.864	487.772636948	600.0
4.8742	488.026925529	587.0
4.8845	488.282712221	562.0
4.8947	488.535034102	578.0
4.905	488.788842507	532.0
4.9152	489.0392129	586.0
4.9254	489.288617938	587.0
4.9357	489.539492316	577.0
4.9459	489.786968424	602.0
4.9562	490.035902509	610.0
4.9664	490.281464606	600.0
4.9766	490.526079889	559.0
4.9869	490.772136293	638.0
4.9971	491.01485969	593.0
5.0074	491.259013063	568.0
5.0176	491.499859208	600.0
5.0278	491.73977672	541.0
5.0381	491.981107678	622.0
5.0483	492.219169639	565.0
5.0586	492.458634114	569.0
5.0688	492.694854874	566.0
5.079	492.930164836	577.0
5.0893	493.166861099	553.0
5.0995	493.400351145	579.0
5.1098	493.635216769	559.0
5.12	493.866900974	562.0
5.1302	494.097691873	620.0
5.1405	494.329842449	616.0
5.1507	494.558848382	572.0
5.161	494.789203477	595.0
5.1712	495.01643825	572.0
5.1814	495.242796872	602.0
5.1917	495.47048906	575.0
5.2019	495.695096997	587.0
5.2122	495.921028184	552.0
5.2224	496.143898975	580.0
5.2326	496.365910443	629.0
5.2429	496.589229864	609.0
5.2531	496.809524267	571.0
5.2634	497.031116508	600.0
5.2736	497.249707126	582.0
5.2838	497.467454924	577.0
5.2941	497.686485556	597.0
5.3043	497.902549265	576.0
5.3146	498.119885888	595.0
5.3248	498.334278533	555.0
5.335	498.547844544	603.0
5.3453	498.762668753	612.0
5.3555	498.974583017	609.0
5.3658	499.187745749	560.0
5.376	499.398021043	559.0
5.3862	499.607485576	587.0
5.3965	499.818184145	582.0
5.4067	500.026028654	562.0
5.417	500.235097654	552.0
5.4272	500.441334668	560.0
5.4374	500.646776492	542.0
5.4477	500.853428653	545.0
5.4579	501.057281565	548.0
5.4682	501.262335451	557.0
5.4784	501.464611739	591.0
5.4886	501.66610811	514.0
5.4989	501.868791572	541.0
5.5091	502.068729544	555.0
5.5194	502.269845427	551.0
5.5296	502.468237055	545.0
5.5398	502.665863742	594.0
5.5501	502.864654724	539.0
5.5603	503.060752942	543.0
5.5706	503.258006449	532.0
5.5808	503.45258802	507.0
5.591	503.646419341	502.0
5.6013	503.841392596	484.0
5.6115	504.033724801	519.0
5.6218	504.227190109	505.0
5.632	504.418034793	481.0
5.6422	504.608143637	499.0
5.6525	504.799372484	515.0
5.6627	504.988011002	445.0
5.673	505.177760861	516.0
5.6832	505.364940425	461.0
5.6934	505.55139828	495.0
5.7037	505.73895463	447.0
5.7139	505.923970396	444.0
5.7242	506.110076161	464.0
5.7344	506.293660993	429.0
5.7446	506.476537976	419.0
5.7549	506.660492357	455.0
5.7651	506.841954946	419.0
5.7754	507.024486601	411.0
5.7856	507.204545736	388.0
5.7958	507.383910617	401.0
5.8061	507.564332204	396.0
5.8163	507.742309854	387.0
5.8266	507.921336038	366.0
5.8368	508.097937187	381.0
5.847	508.273857414	374.0
5.8573	508.450814053	350.0
5.8675	508.625373691	333.0
5.8778	508.800961726	328.0
5.888	508.974171298	361.0
5.8982	509.146713025	346.0
5.9085	509.320271261	320.0
5.9187	509.491478529	341.0
5.929	509.663694444	340.0
5.9392	509.833577573	310.0
5.9494	510.002805683	289.0
5.9597	510.173030781	273.0
5.9699	510.34095006	320.0
5.9802	510.509858615	269.0
5.9904	510.676479185	259.0
6.0006	510.842457316	262.0
6.0109	511.009413287	253.0
6.0211	511.174107722	244.0
6.0314	511.339772434	243.0
6.0416	511.503193102	258.0
6.0518	511.665983668	230.0
6.0621	511.829733295	226.0
6.0723	511.991264818	215.0
6.0826	512.153747985	227.0
6.0928	512.314030204	208.0
6.103	512.473694421	203.0
6.1133	512.634299281	244.0
6.1235	512.792728636	191.0
6.1338	512.952091358	190.0
6.144	513.1092954	179.0
6.1542	513.26589331	181.0
6.1645	513.423413798	153.0
6.1747	513.57880056	148.0
6.185	513.735102765	144.0
6.1952	513.889287746	170.0
6.2054	514.042878236	127.0
6.2157	514.197373586	130.0
6.2259	514.349776187	137.0
6.2362	514.503076651	133.0
6.2464	514.654300552	121.0
6.2566	514.804941378	130.0
6.2669	514.956469687	135.0
6.2771	515.105945438	133.0
6.2874	515.256301808	113.0
6.2976	515.404621496	102.0
6.3078	515.552369306	97.0
6.3181	515.700987555	89.0
6.3283	515.847592666	111.0
6.3386	515.995061482	109.0
6.3488	516.140532731	114.0
6.359	516.285443085	86.0
6.3693	516.431207161	97.0
6.3795	516.57499676	86.0
6.3898	516.719633479	70.0
6.4	516.862310991	82.0
6.4102	517.004438382	81.0
6.4205	517.147403099	67.0
6.4307	517.288431258	78.0
6.441	517.430290268	64.0
6.4512	517.570227698	63.0
6.4614	517.70962557	68.0
6.4717	517.849844689	71.0
6.4819	517.988164441	50.0
6.4922	518.127299087	55.0
6.5024	518.264549057	53.0
6.5126	518.401269832	40.0
6.5229	518.53879608	40.0
6.5331	518.674459439	46.0
6.5434	518.810922043	41.0
6.5536	518.945536164	44.0
6.5638	519.079631254	34.0
6.5741	519.214516348	42.0
6.5843	519.34757433	41.0
6.5946	519.481416206	34.0
6.6048	519.6134451	40.0
6.615	519.74496493	23.0
6.6253	519.877259593	33.0
6.6355	520.007762232	31.0
6.6458	520.139033712	24.0
6.656	520.268527027	34.0
6.6662	520.397521055	45.0
6.6765	520.527275035	28.0
6.6867	520.655271407	28.0
6.697	520.784021853	27.0
6.7072	520.911028285	31.0
6.7174	521.037545017	17.0
6.7277	521.164807108	7.0
6.7379	521.290345344	22.0
6.7482	521.416623174	21.0
6.7584	521.541190482	18.0
6.7686	521.665277495	29.0
6.7789	521.790095551	14.0
6.7891	521.91322286	22.0
6.7994	522.037075558	18.0
6.8096	522.159250585	19.0
6.8198	522.280954541	16.0
6.8301	522.403375501	19.0
6.8403	522.524138183	23.0
6.8506	522.645612325	23.0
6.8608	522.765441013	13.0
6.871	522.884807678	19.0
6.8813	523.004877577	10.0
6.8915	523.123321045	13.0
6.9018	523.242462308	14.0
6.912	523.35998972	18.0
6.9222	523.47706398	21.0
6.9325	523.59482797	13.0
6.9427	523.710996763	14.0
6.953	523.827849951	13.0
6.9632	523.943120281	12.0
6.9734	524.057946162	11.0
6.9837	524.173448526	8.0
6.9939	524.28738633	9.0
7.0042	524.401995384	16.0
7.0144	524.515051979	11.0
7.0246	524.62767266	13.0
7.0349	524.740956833	12.0
7.0451	524.852706492	11.0
7.0554	524.965114511	12.0
7.0656	525.075999884	8.0
7.0758	525.186457717	9.0
7.0861	525.297566298	7.0
7.0963	525.407169835	4.0
7.1066	525.517419089	11.0
7.1168	525.626174939	10.0
7.127	525.734511459	7.0
7.1373	525.84348623	6.0
7.1475	525.950984861	5.0
7.1578	526.059116808	8.0
7.168	526.165784032	11.0
7.1782	526.272039978	8.0
7.1885	526.378921918	6.0
7.1987	526.484356068	4.0
7.209	526.59041137	6.0
7.2192	526.695030079	8.0
7.2294	526.799245409	6.0
7.2397	526.904074711	6.0
7.2499	527.007484027	7.0
7.2602	527.111502566	6.0
7.2704	527.214112101	6.0
7.2806	527.316326004	10.0
7.2909	527.419142088	7.0
7.3011	527.520565456	9.0
7.3114	527.622586347	5.0
7.3216	527.723225294	9.0
7.3318	527.823476207	8.0
7.3421	527.924317736	10.0
7.3523	528.023793296	8.0
7.3626	528.123854904	6.0
7.3728	528.222561108	7.0
7.383	528.320886729	5.0
7.3933	528.419791624	3.0
7.4035	528.517356783	3.0
7.4138	528.615496735	6.0
7.424	528.712307313	8.0
7.4342	528.808744618	6.0
7.4445	528.905750072	3.0
7.4547	529.001441518	5.0
7.465	529.097696719	0.0
7.4752	529.192648077	7.0
7.4854	529.287233329	4.0
7.4957	529.38237582	7.0
7.5059	529.476229538	3.0
7.5162	529.570636185	4.0
7.5264	529.663764027	7.0
7.5366	529.756532796	7.0
7.5469	529.8498481	7.0
7.5571	529.941899384	6.0
7.5674	530.034492976	1.0
7.5776	530.125832324	7.0
7.5878	530.216819494	7.0
7.5981	530.308342704	3.0
7.6083	530.398626167	5.0
7.6186	530.489441525	5.0
7.6288	530.579026725	3.0
7.639	530.668266512	4.0
7.6493	530.758032043	4.0
7.6595	530.846581638	6.0
7.6698	530.935652912	4.0
7.68	531.023517652	6.0
7.6902	531.111043613	3.0
7.7005	531.199085222	3.0
7.7107	531.285934246	3.0
7.721	531.37329493	7.0
7.7312	531.459472252	6.0
7.7414	531.545317301	0.0
7.7517	531.631668095	5.0
7.7619	531.716849207	2.0
7.7722	531.802532153	0.0
7.7824	531.887054464	7.0
7.7926	531.971250881	2.0
7.8029	532.055943332	6.0
