TL-DOS Lehrstuhlversuch
detector=R1408301
job_number=2015-10-27-004
irradiation_dose [mSv]=0.4

[BEGIN DATA]
time [sec] 	 temperature [K] 	 photoncount 
0.0	166.51688606	0.0
0.0102	167.916020546	0.0
0.0205	169.323789914	0.0
0.0307	170.712876908	2.0
0.041	172.110536773	1.0
0.0512	173.489648429	1.0
0.0614	174.863823465	1.0
0.0717	176.246479343	0.0
0.0819	177.610786126	3.0
0.0922	178.983512848	2.0
0.1024	180.338022245	3.0
0.1126	181.687683088	0.0
0.1229	183.045673482	4.0
0.1331	184.385642114	0.0
0.1434	185.733880479	1.0
0.1536	187.064226502	0.0
0.1638	188.389810466	1.0
0.1741	189.723575388	0.0
0.1843	191.039640042	2.0
0.1946	192.363826904	0.0
0.2048	193.670440609	1.0
0.215	194.972377206	2.0
0.2253	196.282348819	2.0
0.2355	197.574935923	0.0
0.2458	198.875500341	0.0
0.256	200.158805094	2.0
0.2662	201.437516174	0.0
0.2765	202.724118932	1.0
0.2867	203.993647307	1.0
0.297	205.271010688	0.0
0.3072	206.531422301	0.0
0.3174	207.787322189	0.0
0.3277	209.050972974	0.0
0.3379	210.297853969	0.0
0.3482	211.5524302	0.0
0.3584	212.790357069	0.0
0.3686	214.0238527	0.0
0.3789	215.264960956	0.0
0.3891	216.489598583	0.0
0.3994	217.721794169	1.0
0.4096	218.937637404	1.0
0.4198	220.14912845	0.0
0.4301	221.36809632	0.0
0.4403	222.570887383	0.0
0.4506	223.781101576	0.0
0.4608	224.975255132	0.0
0.471	226.165134139	0.0
0.4813	227.362356587	0.0
0.4915	228.543690812	0.0
0.5018	229.732315743	0.0
0.512	230.905166546	0.0
0.5222	232.073819055	2.0
0.5325	233.249684005	0.0
0.5427	234.409944163	0.0
0.553	235.577364968	0.0
0.5632	236.729293043	0.0
0.5734	237.877097718	0.0
0.5837	239.031986169	0.0
0.5939	240.171548206	0.0
0.6042	241.318143149	0.0
0.6144	242.449521741	1.0
0.6246	243.57685049	0.0
0.6349	244.711136647	0.0
0.6451	245.830369801	0.0
0.6554	246.9565104	0.0
0.6656	248.067706094	0.0
0.6758	249.174924192	0.0
0.6861	250.288975583	0.0
0.6963	251.388242505	0.0
0.7066	252.494293649	0.0
0.7168	253.585666493	0.0
0.727	254.673132698	0.0
0.7373	255.767310296	0.0
0.7475	256.846967167	0.0
0.7578	257.933287235	0.0
0.768	259.005190853	1.0
0.7782	260.073257524	0.0
0.7885	261.147915861	0.0
0.7987	262.208312509	0.0
0.809	263.275253489	0.0
0.8192	264.328035196	0.0
0.8294	265.377048404	0.0
0.8397	266.432535688	0.0
0.8499	267.474015702	0.0
0.8602	268.5219233	1.0
0.8704	269.555924216	0.0
0.8806	270.58622386	0.0
0.8909	271.622882088	0.0
0.9011	272.645782924	0.0
0.9114	273.674996681	0.0
0.9216	274.690551841	0.0
0.9318	275.702471757	0.0
0.9421	276.720636824	0.0
0.9523	277.72528992	0.0
0.9626	278.73614332	0.0
0.9728	279.733581781	1.0
0.983	280.727449847	0.0
0.9933	281.727451657	0.0
1.0035	282.714182538	0.0
1.0138	283.707003115	0.0
1.024	284.686648065	0.0
1.0342	285.662786313	0.0
1.0445	286.644948883	1.0
1.0547	287.614077267	1.0
1.065	288.589186712	1.0
1.0752	289.551355573	0.0
1.0854	290.510080289	0.0
1.0957	291.474721857	0.0
1.1059	292.42656176	0.0
1.1162	293.384276026	0.0
1.1264	294.329280557	0.0
1.1366	295.270902383	0.0
1.1469	296.218335512	0.0
1.1571	297.153195345	0.0
1.1674	298.093824748	0.0
1.1776	299.021971147	0.0
1.1878	299.946795187	1.0
1.1981	300.877326859	0.0
1.2083	301.795509534	0.0
1.2186	302.719358854	1.0
1.2288	303.630947858	1.0
1.239	304.53927377	0.0
1.2493	305.453205495	0.0
1.2595	306.355008519	0.0
1.2698	307.2623771	0.0
1.28	308.157704078	0.0
1.2902	309.049826177	2.0
1.3005	309.947454084	1.0
1.3107	310.833169658	0.0
1.321	311.724351502	0.0
1.3312	312.603706557	0.0
1.3414	313.479913905	1.0
1.3517	314.361528842	0.0
1.3619	315.231443952	1.0
1.3722	316.106727819	0.0
1.3824	316.970395877	1.0
1.3926	317.83097238	0.0
1.4029	318.696860006	0.0
1.4131	319.55125652	1.0
1.4234	320.410926017	1.0
1.4336	321.259186922	0.0
1.4438	322.104411422	1.0
1.4541	322.9548523	1.0
1.4643	323.794007057	0.0
1.4746	324.638340732	2.0
1.4848	325.471469334	1.0
1.495	326.3016157	2.0
1.5053	327.136885386	0.0
1.5155	327.961070289	1.0
1.5258	328.79034172	0.0
1.536	329.608607969	0.0
1.5462	330.423945181	0.0
1.5565	331.244314319	0.0
1.5667	332.053796416	1.0
1.577	332.868274302	0.0
1.5872	333.67194333	0.0
1.5974	334.472735573	2.0
1.6077	335.278469976	1.0
1.6179	336.073511554	0.0
1.6282	336.873459801	0.0
1.6384	337.66279201	0.0
1.6486	338.449298755	1.0
1.6589	339.240659495	1.0
1.6691	340.021518161	3.0
1.6794	340.807195966	3.0
1.6896	341.582447115	1.0
1.6998	342.354923202	0.0
1.7101	343.132166694	1.0
1.7203	343.899095461	3.0
1.7306	344.670757396	2.0
1.7408	345.432178679	3.0
1.751	346.190874406	2.0
1.7613	346.95425249	0.0
1.7715	347.707499856	1.0
1.7818	348.465395954	2.0
1.792	349.213234085	2.0
1.8022	349.958395282	7.0
1.8125	350.708155306	4.0
1.8227	351.447965337	0.0
1.833	352.192341169	2.0
1.8432	352.926838461	5.0
1.8534	353.658706573	1.0
1.8637	354.395091472	3.0
1.8739	355.121703878	1.0
1.8842	355.852800636	3.0
1.8944	356.574195079	3.0
1.9046	357.293007244	3.0
1.9149	358.016255621	5.0
1.9251	358.729905838	2.0
1.9354	359.447960409	10.0
1.9456	360.156485747	3.0
1.9558	360.862474872	3.0
1.9661	361.572821072	4.0
1.9763	362.273740335	9.0
1.9866	362.978985382	11.0
1.9968	363.674871189	6.0
2.007	364.368266029	7.0
2.0173	365.065940215	11.0
2.0275	365.754355634	6.0
2.0378	366.447019669	8.0
2.048	367.130491425	5.0
2.0582	367.811516651	8.0
2.0685	368.496744883	8.0
2.0787	369.172879516	11.0
2.089	369.853186974	10.0
2.0992	370.524466136	13.0
2.1094	371.193342411	13.0
2.1197	371.866346715	19.0
2.1299	372.530419643	10.0
2.1402	373.198590955	17.0
2.1504	373.857895029	14.0
2.1606	374.514839082	9.0
2.1709	375.175837522	9.0
2.1811	375.828063916	12.0
2.1914	376.484315581	11.0
2.2016	377.131858193	24.0
2.2118	377.777082885	13.0
2.2221	378.426289638	19.0
2.2323	379.066880829	14.0
2.2426	379.711425485	22.0
2.2528	380.347416451	25.0
2.263	380.981130846	27.0
2.2733	381.618756265	17.0
2.2835	382.247919817	27.0
2.2938	382.880966308	19.0
2.304	383.505611699	28.0
2.3142	384.128021131	32.0
2.3245	384.754271818	24.0
2.3347	385.372211592	32.0
2.345	385.993965035	32.0
2.3552	386.607467247	40.0
2.3654	387.218773389	28.0
2.3757	387.83385226	47.0
2.3859	388.440768478	32.0
2.3962	389.051430333	37.0
2.4064	389.653988152	23.0
2.4166	390.254389077	31.0
2.4269	390.858495429	49.0
2.4371	391.454584743	40.0
2.4474	392.054352874	40.0
2.4576	392.64616154	44.0
2.4678	393.235851788	30.0
2.4781	393.829181362	37.0
2.4883	394.414636915	43.0
2.4986	395.003705658	54.0
2.5088	395.584956926	43.0
2.519	396.164127568	45.0
2.5293	396.746872613	44.0
2.5395	397.321884103	37.0
2.5498	397.900444327	52.0
2.56	398.471326533	45.0
2.5702	399.04016523	52.0
2.5805	399.612514565	51.0
2.5907	400.177268306	48.0
2.601	400.745507475	50.0
2.6112	401.306205595	62.0
2.6214	401.864896661	41.0
2.6317	402.427035737	56.0
2.6419	402.98171472	69.0
2.6522	403.539816952	61.0
2.6624	404.090512662	52.0
2.6726	404.639237123	78.0
2.6829	405.191348083	65.0
2.6931	405.736132033	64.0
2.7034	406.284278163	63.0
2.7136	406.825149899	47.0
2.7238	407.36408555	58.0
2.7341	407.906347289	48.0
2.7443	408.441412724	60.0
2.7546	408.979780363	53.0
2.7648	409.511003376	60.0
2.775	410.040324842	52.0
2.7853	410.572913062	40.0
2.7955	411.098433354	60.0
2.8058	411.62719694	41.0
2.816	412.148943356	62.0
2.8262	412.668822147	48.0
2.8365	413.191909415	42.0
2.8467	413.708054842	42.0
2.857	414.227385705	33.0
2.8672	414.739824578	29.0
2.8774	415.250429144	41.0
2.8877	415.76418495	43.0
2.8979	416.271122751	39.0
2.9082	416.781189164	45.0
2.9184	417.284486534	22.0
2.9286	417.785982319	36.0
2.9389	418.290573129	49.0
2.9491	418.788467562	32.0
2.9594	419.289434794	28.0
2.9696	419.783753738	33.0
2.9798	420.276303236	33.0
2.9901	420.771892545	24.0
3.0003	421.260904937	44.0
3.0106	421.752935311	35.0
3.0208	422.238435997	39.0
3.031	422.722198802	28.0
3.0413	423.208947191	40.0
3.0515	423.689235989	36.0
3.0618	424.172488932	27.0
3.072	424.64932867	27.0
3.0822	425.12446153	33.0
3.0925	425.602526715	27.0
3.1027	426.074247541	32.0
3.113	426.548879634	42.0
3.1232	427.01721293	34.0
3.1334	427.483869797	37.0
3.1437	427.953406677	47.0
3.1539	428.416712378	46.0
3.1642	428.882877411	46.0
3.1744	429.342856012	62.0
3.1846	429.80118809	48.0
3.1949	430.262348805	43.0
3.2051	430.7173895	50.0
3.2154	431.175238518	47.0
3.2256	431.627011465	36.0
3.2358	432.077167263	53.0
3.2461	432.530101236	46.0
3.2563	432.977024365	68.0
3.2666	433.42670572	55.0
3.2768	433.870419396	49.0
3.287	434.312544771	62.0
3.2973	434.757398761	50.0
3.3075	435.196349137	56.0
3.3178	435.638008532	62.0
3.328	436.073806709	44.0
3.3382	436.508044917	50.0
3.3485	436.944963065	61.0
3.3587	437.376082914	57.0
3.369	437.809863456	61.0
3.3792	438.237887338	75.0
3.3894	438.664379082	60.0
3.3997	439.093502956	55.0
3.4099	439.516931968	53.0
3.4202	439.94297421	56.0
3.4304	440.363362486	60.0
3.4406	440.782245954	52.0
3.4509	441.203714599	58.0
3.4611	441.619589974	70.0
3.4714	442.038031959	61.0
3.4816	442.450920841	61.0
3.4918	442.862331761	64.0
3.5021	443.276281739	70.0
3.5123	443.684738227	59.0
3.5226	444.095715539	77.0
3.5328	444.501238811	69.0
3.543	444.905310486	71.0
3.5533	445.311875925	66.0
3.5635	445.713045873	73.0
3.5738	446.116691676	68.0
3.584	446.514980734	60.0
3.5942	446.911844091	80.0
3.6045	447.311156725	55.0
3.6147	447.705170119	88.0
3.625	448.101615201	61.0
3.6352	448.492799098	71.0
3.6454	448.882582727	58.0
3.6557	449.27477194	71.0
3.6659	449.661756447	70.0
3.6762	450.051129263	68.0
3.6864	450.43533475	69.0
3.6966	450.818164948	44.0
3.7069	451.203357817	54.0
3.7171	451.583438827	62.0
3.7274	451.965865541	60.0
3.7376	452.343217106	66.0
3.7478	452.719217918	74.0
3.7581	453.097539251	59.0
3.7683	453.470839917	72.0
3.7786	453.846444442	70.0
3.7888	454.217064354	71.0
3.799	454.586357609	63.0
3.8093	454.957929989	54.0
3.8195	455.324571268	52.0
3.8298	455.693475306	50.0
3.84	456.057483653	70.0
3.8502	456.420189009	50.0
3.8605	456.785132833	45.0
3.8707	457.145233522	52.0
3.881	457.507556604	69.0
3.8912	457.865071331	56.0
3.9014	458.221306311	53.0
3.9117	458.579739826	50.0
3.9219	458.933416604	50.0
3.9322	459.28927613	47.0
3.9424	459.640413077	62.0
3.9526	459.990293108	53.0
3.9629	460.342332453	54.0
3.9731	460.689699918	48.0
3.9834	461.039211192	46.0
3.9936	461.384084135	41.0
4.0038	461.727722583	51.0
4.0141	462.073481826	36.0
4.0243	462.41465253	53.0
4.0346	462.7579288	51.0
4.0448	463.096649483	40.0
4.055	463.434157694	49.0
4.0653	463.773748866	53.0
4.0755	464.108833356	61.0
4.0858	464.445985849	55.0
4.096	464.778664024	59.0
4.1062	465.110151355	53.0
4.1165	465.44368449	51.0
4.1267	465.772791338	48.0
4.137	466.103929299	39.0
4.1472	466.430672758	61.0
4.1574	466.756246619	50.0
4.1677	467.083829787	49.0
4.1779	467.40706563	64.0
4.1882	467.732296351	43.0
4.1984	468.053210967	52.0
4.2086	468.372976848	48.0
4.2189	468.694716192	53.0
4.2291	469.012185764	56.0
4.2394	469.331614627	52.0
4.2496	469.64680438	54.0
4.2598	469.960865892	64.0
4.2701	470.276865661	48.0
4.2803	470.588671828	47.0
4.2906	470.902402333	42.0
4.3008	471.211969351	57.0
4.311	471.520428254	46.0
4.3213	471.830790838	44.0
4.3315	472.13703463	50.0
4.3418	472.445168432	38.0
4.352	472.749213019	61.0
4.3622	473.05216926	53.0
4.3725	473.356995222	50.0
4.3827	473.657775867	54.0
4.393	473.960412806	43.0
4.4032	474.25903348	57.0
4.4134	474.556585221	55.0
4.4237	474.855973329	62.0
4.4339	475.151388286	43.0
4.4442	475.448626423	45.0
4.4544	475.74191994	56.0
4.4646	476.034163594	60.0
4.4749	476.328210856	44.0
4.4851	476.618355844	47.0
4.4954	476.910291488	55.0
4.5056	477.198352882	70.0
4.5158	477.485383141	49.0
4.5261	477.774184832	53.0
4.5363	478.059153864	54.0
4.5466	478.345881608	48.0
4.5568	478.628804214	52.0
4.567	478.910714081	49.0
4.5773	479.19436378	51.0
4.5875	479.47424919	49.0
4.5978	479.755861938	53.0
4.608	480.033737429	62.0
4.6182	480.310618248	51.0
4.6285	480.589207861	37.0
4.6387	480.864100337	51.0
4.649	481.140689337	36.0
4.6592	481.41360775	46.0
4.6694	481.685549234	50.0
4.6797	481.959169029	42.0
4.6899	482.229157642	43.0
4.7002	482.500812513	50.0
4.7104	482.768862278	59.0
4.7206	483.035952542	44.0
4.7309	483.304691176	31.0
4.7411	483.569863406	35.0
4.7514	483.83667217	38.0
4.7616	484.09994014	58.0
4.7718	484.362265725	40.0
4.7821	484.626210276	49.0
4.7923	484.886652043	39.0
4.8026	485.14870115	38.0
4.8128	485.407272628	41.0
4.823	485.664918533	37.0
4.8333	485.924154522	44.0
4.8435	486.179950215	41.0
4.8538	486.437324573	38.0
4.864	486.691283341	42.0
4.8742	486.944333047	42.0
4.8845	487.198944472	46.0
4.8947	487.450176972	39.0
4.905	487.702959976	39.0
4.9152	487.952388321	40.0
4.9254	488.200923821	46.0
4.9357	488.45099318	41.0
4.9459	488.697743892	39.0
4.9562	488.946017447	43.0
4.9664	489.190996188	39.0
4.9766	489.435098012	39.0
4.9869	489.680706331	35.0
4.9971	489.923055206	53.0
5.0074	490.166899759	40.0
5.0176	490.407508273	34.0
5.0278	490.647255514	52.0
5.0381	490.888482376	48.0
5.0483	491.126507939	42.0
5.0586	491.366002498	46.0
5.0688	491.602318747	40.0
5.079	491.837789087	28.0
5.0893	492.074712653	41.0
5.0995	492.308492029	46.0
5.1098	492.543714194	48.0
5.12	492.775814749	41.0
5.1302	493.007084485	41.0
5.1405	493.239781522	38.0
5.1507	493.469390459	38.0
5.161	493.700416448	30.0
5.1712	493.928376513	41.0
5.1814	494.15552058	37.0
5.1917	494.384066487	38.0
5.2019	494.609579383	37.0
5.2122	494.836484051	44.0
5.2224	495.060377489	41.0
5.2326	495.283469486	52.0
5.2429	495.507938315	40.0
5.2531	495.72942824	43.0
5.2634	495.952285109	38.0
5.2736	496.172184465	36.0
5.2838	496.391296678	43.0
5.2941	496.611761161	33.0
5.3043	496.829299881	35.0
5.3146	497.04818116	30.0
5.3248	497.264157686	28.0
5.335	497.479361111	41.0
5.3453	497.695892682	40.0
5.3555	497.909550684	40.0
5.3658	498.124527295	45.0
5.376	498.336650971	33.0
5.3862	498.548015337	45.0
5.3965	498.760684157	36.0
5.4067	498.970530669	34.0
5.417	499.181672268	46.0
5.4272	499.390011826	48.0
5.4374	499.597605619	36.0
5.4477	499.806480596	37.0
5.4579	500.012583613	48.0
5.4682	500.219958613	45.0
5.4784	500.424581558	45.0
5.4886	500.628472043	45.0
5.4989	500.833620856	42.0
5.5091	501.036047158	42.0
5.5194	501.239722752	40.0
5.5296	501.440695387	44.0
5.5398	501.640948627	41.0
5.5501	501.842437748	39.0
5.5603	502.041252926	47.0
5.5706	502.241295108	43.0
5.5808	502.438682551	53.0
5.591	502.635363432	39.0
5.6013	502.833258146	41.0
5.6115	503.028526619	39.0
5.6218	503.225000208	35.0
5.632	503.418866415	31.0
5.6422	503.612038665	35.0
5.6525	503.806403094	35.0
5.6627	503.998188132	35.0
5.673	504.191156788	31.0
5.6832	504.381564576	40.0
5.6934	504.571290786	32.0
5.7037	504.762187908	30.0
5.7139	504.950551653	33.0
5.7242	505.140077901	34.0
5.7344	505.327088965	23.0
5.7446	505.51343061	31.0
5.7549	505.700922279	30.0
5.7651	505.885925764	22.0
5.7754	506.072071014	29.0
5.7856	506.255745948	35.0
5.7958	506.438763406	29.0
5.8061	506.622910373	26.0
5.8163	506.804613542	33.0
5.8266	506.987438108	34.0
5.8368	507.167836428	25.0
5.847	507.347588999	28.0
5.8573	507.52845093	27.0
5.8675	507.706912659	30.0
5.8778	507.88647578	35.0
5.888	508.063655936	29.0
5.8982	508.240201864	29.0
5.9085	508.417837361	24.0
5.9187	508.593115475	26.0
5.929	508.769475332	28.0
5.9392	508.943494735	25.0
5.9494	509.116891224	27.0
5.9597	509.291357844	30.0
5.9699	509.463509135	24.0
5.9802	509.636722872	22.0
5.9904	509.807637907	29.0
6.0006	509.97794114	24.0
6.0109	510.149295414	19.0
6.0211	510.318375662	15.0
6.0314	510.488499404	25.0
6.0416	510.65636545	26.0
6.0518	510.823630608	15.0
6.0621	510.991928058	16.0
6.0723	511.157992049	21.0
6.0826	511.325080918	18.0
6.0928	511.489952366	16.0
6.103	511.654233647	23.0
6.1133	511.819528804	15.0
6.1235	511.982630345	19.0
6.1338	512.146738481	20.0
6.144	512.308668753	20.0
6.1542	512.470019386	13.0
6.1645	512.632365808	15.0
6.1747	512.792557747	14.0
6.185	512.953738324	17.0
6.1952	513.112779889	12.0
6.2054	513.271252154	11.0
6.2157	513.430702445	16.0
6.2259	513.588036687	20.0
6.2362	513.74634193	17.0
6.2464	513.90254632	18.0
6.2566	514.058191566	23.0
6.2669	514.21479739	15.0
6.2771	514.369324913	6.0
6.2874	514.524806116	13.0
6.2976	514.678223943	14.0
6.3078	514.831092601	13.0
6.3181	514.984904702	11.0
6.3283	515.136675577	9.0
6.3386	515.289383119	10.0
6.3488	515.440064093	13.0
6.359	515.590205696	11.0
6.3693	515.74127391	6.0
6.3795	515.890337313	8.0
6.3898	516.040320673	8.0
6.4	516.188313619	5.0
6.4102	516.335776814	13.0
6.4205	516.484150092	4.0
6.4307	516.630554321	5.0
6.441	516.777862098	3.0
6.4512	516.923214966	13.0
6.4614	517.068047535	4.0
6.4717	517.213773951	13.0
6.4819	517.357566445	7.0
6.4922	517.502246368	5.0
6.5024	517.645006256	4.0
6.5126	517.787255127	3.0
6.5229	517.930381899	4.0
6.5331	518.071609249	3.0
6.5434	518.213708197	7.0
6.5536	518.353921362	10.0
6.5638	518.493632626	9.0
6.5741	518.63420613	4.0
6.5843	518.772914096	3.0
6.5946	518.912478111	5.0
6.6048	519.050189985	8.0
6.615	519.18740891	8.0
6.6253	519.325474694	6.0
6.6355	519.46170822	2.0
6.6458	519.598782523	3.0
6.656	519.734037727	1.0
6.6662	519.868808775	4.0
6.6765	520.004411575	3.0
6.6867	520.138214803	0.0
6.697	520.27284381	7.0
6.7072	520.405686167	4.0
6.7174	520.538053007	5.0
6.7277	520.671236761	1.0
6.7379	520.802653045	4.0
6.7482	520.934880377	6.0
6.7584	521.065352932	4.0
6.7686	521.195358453	2.0
6.7789	521.326166314	3.0
6.7891	521.455238236	1.0
6.7994	521.585106737	4.0
6.8096	521.713251765	0.0
6.8198	521.84093809	2.0
6.8301	521.969412443	3.0
6.8403	522.096181824	6.0
6.8506	522.223733574	0.0
6.8608	522.349592597	0.0
6.871	522.475001099	5.0
6.8813	522.601183571	1.0
6.8915	522.725691487	2.0
6.9018	522.850967815	3.0
6.912	522.974581612	3.0
6.9222	523.097752926	6.0
6.9325	523.221684403	1.0
6.9427	523.343971197	2.0
6.953	523.467012694	0.0
6.9632	523.58842132	7.0
6.9734	523.709395355	0.0
6.9837	523.831115992	1.0
6.9939	523.951221287	1.0
7.0042	524.072067821	2.0
7.0144	524.191310613	2.0
7.0246	524.310126568	2.0
7.0349	524.429675805	1.0
7.0451	524.547638516	3.0
7.0554	524.666329244	0.0
7.0656	524.783444839	2.0
7.0758	524.900141212	0.0
7.0861	525.017557786	5.0
7.0963	525.133416135	1.0
7.1066	525.249989515	2.0
7.1168	525.365015861	3.0
7.127	525.479630462	0.0
7.1373	525.594952418	0.0
7.1475	525.708743946	2.0
7.1578	525.823237749	5.0
7.168	525.936212116	1.0
7.1782	526.048782084	2.0
7.1885	526.162046787	2.0
7.1987	526.273808365	1.0
7.209	526.38625969	1.0
7.2192	526.497218683	1.0
7.2294	526.607780492	0.0
7.2397	526.719024643	1.0
7.2499	526.828792483	1.0
7.2602	526.939237765	1.0
7.2704	527.048217338	0.0
7.2806	527.156806812	3.0
7.2909	527.266066455	3.0
7.3011	527.373876124	0.0
7.3114	527.48235115	1.0
7.3216	527.589386614	0.0
7.3318	527.696038937	0.0
7.3421	527.803349475	1.0
7.3523	527.909235905	0.0
7.3626	528.015775822	3.0
7.3728	528.120901859	2.0
7.383	528.225651589	4.0
7.3933	528.331047792	0.0
7.4035	528.435045292	2.0
7.4138	528.539684622	4.0
7.424	528.642935293	1.0
7.4342	528.745816372	1.0
7.4445	528.84933239	1.0
7.4547	528.951474657	1.0
7.465	529.054247304	1.0
7.4752	529.155656065	0.0
7.4854	529.256701826	0.0
7.4957	529.358371201	0.0
7.5059	529.458691331	1.0
7.5162	529.559630595	0.0
7.5264	529.659230304	0.0
7.5366	529.75847349	0.0
7.5469	529.858329163	1.0
7.5571	529.956859662	2.0
7.5674	530.05599825	4.0
7.5776	530.153821179	2.0
7.5878	530.251293945	0.0
7.5981	530.349368272	0.0
7.6083	530.446141064	3.0
7.6186	530.543511099	0.0
7.6288	530.639588944	1.0
7.639	530.735322873	2.0
7.6493	530.831647632	0.0
7.6595	530.926694075	3.0
7.6698	531.022327105	1.0
7.68	531.116690998	0.0
7.6902	531.21071711	0.0
7.7005	531.305323511	3.0
7.7107	531.398674401	0.0
7.721	531.492601413	1.0
7.7312	531.585281929	0.0
7.7414	531.67763069	0.0
7.7517	531.770549388	1.0
7.7619	531.862234972	0.0
7.7722	531.954486401	0.0
7.7824	532.04551357	0.0
7.7926	532.136214902	0.0
7.8029	532.227476004	0.0
7.8131	532.31752599	2.0
7.8234	532.408131727	1.0
7.8336	532.497535043	2.0
7.8438	532.586618335	2.0
7.8541	532.676251412	3.0
7.8643	532.764694977	0.0
7.8746	532.853684379	2.0
7.8848	532.941492812	0.0
7.895	533.028986928	2.0
7.9053	533.117021022	0.0
7.9155	533.203886824	1.0
7.9258	533.291288726	1.0
7.936	533.377530725	2.0
7.9462	533.463464016	0.0
7.9565	533.549927652	3.0
7.9667	533.635243837	1.0
7.977	533.721086558	2.0
7.9872	533.805790069	0.0
7.9974	533.890190378	1.0
8.0077	533.975111571	0.0
8.0179	534.058905782	1.0
