TL-DOS Lehrstuhlversuch
detector=R1408203
job_number=2015-11-03-016
irradiation_dose [mSv]=0.1

[BEGIN DATA]
time [sec] 	 temperature [K] 	 photoncount 
0.0	221.598231221	0.0
0.0102	222.604362231	1.0
0.0205	223.617608524	0.0
0.0307	224.618302766	1.0
0.041	225.626073841	1.0
0.0512	226.621360692	3.0
0.0614	227.613967933	2.0
0.0717	228.613594817	1.0
0.0819	229.600838366	0.0
0.0922	230.595063627	0.0
0.1024	231.576972469	3.0
0.1126	232.556237718	2.0
0.1229	233.542428256	1.0
0.1331	234.516401908	3.0
0.1434	235.497263429	1.0
0.1536	236.465974079	0.0
0.1638	237.432076671	2.0
0.1741	238.405011466	1.0
0.1843	239.365893587	1.0
0.1946	240.333570994	0.0
0.2048	241.289260856	1.0
0.215	242.242377713	3.0
0.2253	243.202234941	1.0
0.2355	244.150201499	3.0
0.2458	245.104872005	0.0
0.256	246.047716094	2.0
0.2662	246.988021764	0.0
0.2765	247.934977204	0.0
0.2867	248.870201802	0.0
0.297	249.812040237	0.0
0.3072	250.742211219	1.0
0.3174	251.669877901	0.0
0.3277	252.604104972	1.0
0.3379	253.526758878	0.0
0.3482	254.455937723	0.0
0.3584	255.373605941	0.0
0.3686	256.288803521	0.0
0.3789	257.210473308	0.0
0.3891	258.120725491	0.0
0.3994	259.037414907	0.0
0.4096	259.942748415	0.0
0.4198	260.845644494	0.0
0.4301	261.754925786	1.0
0.4403	262.65294294	0.0
0.4506	263.557310804	0.0
0.4608	264.450475397	0.0
0.471	265.341235325	0.0
0.4813	266.238294638	0.0
0.4915	267.12424122	0.0
0.5018	268.016453149	0.0
0.512	268.897612395	0.0
0.5222	269.776399297	1.0
0.5325	270.661400912	0.0
0.5427	271.535439166	0.0
0.553	272.415658553	0.0
0.5632	273.28497382	0.0
0.5734	274.151948629	0.0
0.5837	275.025054619	0.0
0.5939	275.88734461	0.0
0.6042	276.75573265	0.0
0.6144	277.613363137	0.0
0.6246	278.468684625	0.0
0.6349	279.330054882	0.0
0.6451	280.180754522	0.0
0.6554	281.037470245	0.0
0.6656	281.883573011	0.0
0.6758	282.727397815	0.0
0.6861	283.577190083	0.0
0.6963	284.416455163	0.0
0.7066	285.26165546	0.0
0.7168	286.096385454	0.0
0.727	286.928868104	0.0
0.7373	287.767238008	0.0
0.7475	288.595222223	0.0
0.7578	289.429061878	0.0
0.768	290.252571965	0.0
0.7782	291.073864915	0.0
0.7885	291.900965987	0.0
0.7987	292.717820967	0.0
0.809	293.540452683	0.0
0.8192	294.352893673	0.0
0.8294	295.163147329	1.0
0.8397	295.979131037	0.0
0.8499	296.785006374	0.0
0.8602	297.596580801	0.0
0.8704	298.398101479	0.0
0.8806	299.197464222	0.0
0.8909	300.002479999	0.0
0.9011	300.797523275	0.0
0.9114	301.598189037	0.0
0.9216	302.388936186	0.0
0.9318	303.177554407	0.0
0.9421	303.971749676	0.0
0.9523	304.756106489	0.0
0.9626	305.546010213	0.0
0.9728	306.326128645	1.0
0.983	307.104146763	0.0
0.9933	307.887666967	0.0
1.0035	308.661480957	0.0
1.0138	309.4407673	0.0
1.024	310.210399879	0.0
1.0342	310.977960375	0.0
1.0445	311.750949001	0.0
1.0547	312.514361878	1.0
1.065	313.283173553	0.0
1.0752	314.042461222	0.0
1.0854	314.799704661	0.0
1.0957	315.562303268	0.0
1.1059	316.315454837	1.0
1.1162	317.073932636	0.0
1.1264	317.823014446	0.0
1.1366	318.570079503	0.0
1.1469	319.322427747	0.0
1.1571	320.065455934	0.0
1.1674	320.813738759	0.0
1.1776	321.55275189	0.0
1.1878	322.289775376	0.0
1.1981	323.032011036	0.0
1.2083	323.765051913	0.0
1.2186	324.503276799	0.0
1.2288	325.232356588	0.0
1.239	325.959473475	0.0
1.2493	326.691732478	0.0
1.2595	327.414920288	1.0
1.2698	328.143222427	0.0
1.28	328.862502391	0.0
1.2902	329.579845838	0.0
1.3005	330.302262283	0.0
1.3107	331.015729465	0.0
1.321	331.734242232	0.0
1.3312	332.443854095	0.0
1.3414	333.15155547	2.0
1.3517	333.864261655	0.0
1.3619	334.568138867	0.0
1.3722	335.276993845	0.0
1.3824	335.977067558	0.0
1.3926	336.675256464	0.0
1.4029	337.378382908	0.0
1.4131	338.072799052	0.0
1.4234	338.772126055	0.0
1.4336	339.462789825	0.0
1.4438	340.151594121	0.0
1.4541	340.845269589	0.0
1.4643	341.530351836	0.0
1.4746	342.220278932	0.0
1.4848	342.901659241	0.0
1.495	343.58120507	0.0
1.5053	344.265556596	2.0
1.5155	344.941430405	0.0
1.5258	345.622083942	0.0
1.536	346.294305573	0.0
1.5462	346.964717381	0.0
1.5565	347.639870291	1.0
1.5667	348.306659436	0.0
1.577	348.978164063	1.0
1.5872	349.641350121	0.0
1.5974	350.302750682	0.0
1.6077	350.968828618	0.0
1.6179	351.62665521	1.0
1.6282	352.289133901	2.0
1.6384	352.943405836	2.0
1.6486	353.595916274	1.0
1.6589	354.253041216	1.0
1.6691	354.902025723	0.0
1.6794	355.555599799	2.0
1.6896	356.201077428	0.0
1.6998	356.844817238	1.0
1.7101	357.493109527	2.0
1.7203	358.133370799	1.0
1.7306	358.77815995	1.0
1.7408	359.414961482	1.0
1.751	360.050048552	1.0
1.7613	360.689626911	1.0
1.7715	361.3212822	0.0
1.7818	361.957404508	1.0
1.792	362.58564656	1.0
1.8022	363.212197196	0.0
1.8125	363.843178751	1.0
1.8227	364.466343734	5.0
1.833	365.093915692	2.0
1.8432	365.713713316	1.0
1.8534	366.33184226	0.0
1.8637	366.954342564	1.0
1.8739	367.569131361	2.0
1.8842	368.188267898	3.0
1.8944	368.799734599	2.0
1.9046	369.409555048	3.0
1.9149	370.023688101	1.0
1.9251	370.6302133	3.0
1.9354	371.2410278	5.0
1.9456	371.844275556	4.0
1.9558	372.445899188	1.0
1.9661	373.051777457	2.0
1.9763	373.650150133	3.0
1.9866	374.252754454	5.0
1.9968	374.847893739	3.0
2.007	375.441430732	1.0
2.0173	376.039165172	4.0
2.0275	376.629494905	3.0
2.0378	377.223999404	5.0
2.048	377.811139207	3.0
2.0582	378.396698255	3.0
2.0685	378.986398331	5.0
2.0787	379.568793228	6.0
2.089	380.155306778	3.0
2.0992	380.734554624	5.0
2.1094	381.312242961	2.0
2.1197	381.894016666	1.0
2.1299	382.468583383	9.0
2.1402	383.047213393	7.0
2.1504	383.618675359	6.0
2.1606	384.188598779	6.0
2.1709	384.762552653	6.0
2.1811	385.329396412	5.0
2.1914	385.900248847	4.0
2.2016	386.464029587	4.0
2.2118	387.02629246	10.0
2.2221	387.592531614	12.0
2.2323	388.151756221	8.0
2.2426	388.714935623	9.0
2.2528	389.271138382	4.0
2.263	389.825843677	9.0
2.2733	390.384471806	11.0
2.2835	390.936179674	8.0
2.2938	391.491789178	12.0
2.304	392.040515815	6.0
2.3142	392.587765116	7.0
2.3245	393.138884523	8.0
2.3347	393.683176686	11.0
2.345	394.231318042	17.0
2.3552	394.772669047	18.0
2.3654	395.312562573	12.0
2.3757	395.856274184	11.0
2.3859	396.39325032	6.0
2.3962	396.934023911	26.0
2.4064	397.468098421	16.0
2.4166	398.000735044	16.0
2.4269	398.537138431	9.0
2.4371	399.066896877	19.0
2.4474	399.600401735	13.0
2.4576	400.127297557	13.0
2.4678	400.652774818	21.0
2.4781	401.181968215	23.0
2.4883	401.704605986	20.0
2.4986	402.230939812	20.0
2.5088	402.750753438	17.0
2.519	403.26916757	21.0
2.5293	403.791247887	15.0
2.5395	404.306860695	18.0
2.5498	404.826119879	18.0
2.56	405.338946502	11.0
2.5702	405.850392442	13.0
2.5805	406.365455289	19.0
2.5907	406.87413756	14.0
2.601	407.386417193	18.0
2.6112	407.892350729	18.0
2.6214	408.39692214	22.0
2.6317	408.905061841	18.0
2.6419	409.40690673	24.0
2.6522	409.912300628	17.0
2.6624	410.411433729	21.0
2.6726	410.909223013	13.0
2.6829	411.410532626	16.0
2.6931	411.905632036	13.0
2.7034	412.404232753	8.0
2.7136	412.896656825	11.0
2.7238	413.387755144	14.0
2.7341	413.882326473	12.0
2.7443	414.370771074	8.0
2.7546	414.862669918	12.0
2.7648	415.348475141	12.0
2.775	415.83297243	15.0
2.7853	416.320896048	8.0
2.7955	416.802775289	8.0
2.8058	417.288062343	8.0
2.816	417.767337682	11.0
2.8262	418.245322669	13.0
2.8365	418.726687929	9.0
2.8467	419.202090057	8.0
2.857	419.680854193	13.0
2.8672	420.153687419	9.0
2.8774	420.625247637	12.0
2.8877	421.100142693	7.0
2.8979	421.56915477	6.0
2.9082	422.041483664	9.0
2.9184	422.507961369	10.0
2.9286	422.973183176	7.0
2.9389	423.441694996	15.0
2.9491	423.904402912	12.0
2.9594	424.370383063	15.0
2.9696	424.830590673	11.0
2.9798	425.289559266	8.0
2.9901	425.751773649	13.0
3.0003	426.208262141	7.0
3.0106	426.667978885	7.0
3.0208	427.122000678	10.0
3.031	427.574800109	17.0
3.0413	428.030801702	12.0
3.0515	428.481154368	11.0
3.0618	428.934691893	9.0
3.072	429.382611015	13.0
3.0822	429.829324205	18.0
3.0925	430.279196517	13.0
3.1027	430.723495829	11.0
3.113	431.170937193	17.0
3.1232	431.612835673	17.0
3.1334	432.05354443	14.0
3.1437	432.497369845	13.0
3.1539	432.935697171	12.0
3.1642	433.377124314	11.0
3.1744	433.813083077	17.0
3.1846	434.247868108	18.0
3.1949	434.685727906	20.0
3.2051	435.118163516	18.0
3.2154	435.553657277	16.0
3.2256	435.983756161	18.0
3.2358	436.41269709	29.0
3.2461	436.844671456	18.0
3.2563	437.271294543	16.0
3.2666	437.700934676	12.0
3.2768	438.125252445	13.0
3.287	438.548427824	17.0
3.2973	438.974595867	19.0
3.3075	439.395484559	15.0
3.3178	439.819349744	13.0
3.328	440.237964105	19.0
3.3382	440.655451431	23.0
3.3485	441.075891196	24.0
3.3587	441.491122571	18.0
3.369	441.909290431	25.0
3.3792	442.322278046	12.0
3.3894	442.734153774	10.0
3.3997	443.148942256	15.0
3.4099	443.558592357	16.0
3.4202	443.971139472	17.0
3.4304	444.378575971	25.0
3.4406	444.784915529	12.0
3.4509	445.194128689	25.0
3.4611	445.598272535	16.0
3.4714	446.005274455	13.0
3.4816	446.407234453	15.0
3.4918	446.808112255	11.0
3.5021	447.211825033	8.0
3.5123	447.610536636	15.0
3.5226	448.012067896	16.0
3.5328	448.408625005	26.0
3.543	448.804114463	18.0
3.5533	449.202400793	13.0
3.5635	449.595753169	14.0
3.5738	449.991887303	23.0
3.584	450.383114145	24.0
3.5942	450.773287686	25.0
3.6045	451.166220506	15.0
3.6147	451.554285691	18.0
3.625	451.945095243	22.0
3.6352	452.331063463	18.0
3.6454	452.715992542	11.0
3.6557	453.103643809	11.0
3.6659	453.48649287	18.0
3.6762	453.87204941	15.0
3.6864	454.252829692	15.0
3.6966	454.6325848	9.0
3.7069	455.015025507	15.0
3.7171	455.392728555	17.0
3.7274	455.773102691	13.0
3.7376	456.148764768	17.0
3.7478	456.52341545	12.0
3.7581	456.900715634	14.0
3.7683	457.273341839	16.0
3.7786	457.648603229	16.0
3.7888	458.019215896	12.0
3.799	458.388830764	11.0
3.8093	458.761059519	20.0
3.8195	459.128677121	16.0
3.8298	459.498894487	11.0
3.84	459.864525616	15.0
3.8502	460.229172357	10.0
3.8605	460.596397852	18.0
3.8707	460.959074173	17.0
3.881	461.324315313	24.0
3.8912	461.685031863	21.0
3.9014	462.044777255	19.0
3.9117	462.407066739	14.0
3.9219	462.764868197	17.0
3.9322	463.1252	9.0
3.9424	463.481068028	13.0
3.9526	463.835977952	15.0
3.9629	464.193397773	17.0
3.9731	464.546389892	14.0
3.9834	464.901878345	16.0
3.9936	465.252963023	16.0
4.0038	465.603102475	16.0
4.0141	465.955718087	12.0
4.0243	466.303965512	16.0
4.0346	466.654675716	10.0
4.0448	467.001041338	8.0
4.055	467.346474439	13.0
4.0653	467.694350417	7.0
4.0755	468.037916923	15.0
4.0858	468.383913105	20.0
4.096	468.725623101	12.0
4.1062	469.066413112	7.0
4.1165	469.409613164	16.0
4.1267	469.748561668	14.0
4.137	470.08990719	14.0
4.1472	470.427024139	10.0
4.1574	470.763233468	15.0
4.1677	471.101820444	11.0
4.1779	471.43621302	19.0
4.1882	471.772970394	17.0
4.1984	472.105556032	20.0
4.2086	472.43724625	17.0
4.2189	472.771282157	14.0
4.2291	473.101180041	13.0
4.2394	473.433410937	17.0
4.2496	473.761526172	20.0
4.2598	474.088758023	13.0
4.2701	474.418304032	14.0
4.2803	474.743767639	11.0
4.2906	475.071532901	9.0
4.3008	475.39523782	13.0
4.311	475.718071229	14.0
4.3213	476.043187691	11.0
4.3315	476.364276625	17.0
4.3418	476.687636275	15.0
4.352	477.00699016	15.0
4.3622	477.325484249	15.0
4.3725	477.646230704	15.0
4.3827	477.963003765	12.0
4.393	478.282017022	16.0
4.4032	478.597078356	9.0
4.4134	478.911291451	15.0
4.4237	479.227726637	11.0
4.4339	479.540241837	25.0
4.4442	479.854967121	12.0
4.4544	480.165793603	16.0
4.4646	480.475783246	16.0
4.4749	480.787965112	8.0
4.4851	481.096279683	12.0
4.4954	481.406774631	13.0
4.5056	481.713423181	9.0
4.5158	482.019246142	9.0
4.5261	482.327231859	13.0
4.5363	482.631402263	17.0
4.5466	482.937723736	10.0
4.5568	483.240250513	17.0
4.567	483.541962797	7.0
4.5773	483.845808767	15.0
4.5875	484.145890706	14.0
4.5978	484.448094802	11.0
4.608	484.746555207	9.0
4.6182	485.044212067	10.0
4.6285	485.343973934	11.0
4.6387	485.640022364	11.0
4.649	485.938164426	7.0
4.6592	486.232613117	13.0
4.6694	486.526269063	13.0
4.6797	486.822001723	18.0
4.6899	487.114070859	13.0
4.7002	487.408205486	16.0
4.7104	487.698696386	15.0
4.7206	487.988405197	7.0
4.7309	488.280162807	14.0
4.7411	488.568306136	14.0
4.7514	488.858487193	8.0
4.7616	489.1450735	11.0
4.7718	489.430888231	11.0
4.7821	489.718724222	11.0
4.7923	490.002994513	14.0
4.8026	490.289275142	9.0
4.8128	490.572009339	4.0
4.823	490.85398233	13.0
4.8333	491.137949414	16.0
4.8435	491.418398725	13.0
4.8538	491.700831353	11.0
4.864	491.979765217	6.0
4.8742	492.257948108	15.0
4.8845	492.538098288	12.0
4.8947	492.814777979	15.0
4.905	493.093414328	11.0
4.9152	493.368598941	13.0
4.9254	493.643042676	13.0
4.9357	493.919427256	19.0
4.9459	494.192387995	9.0
4.9562	494.467279092	10.0
4.9664	494.73876485	16.0
4.9766	495.009519688	12.0
4.9869	495.282189282	7.0
4.9971	495.551481058	13.0
5.0074	495.822677245	7.0
5.0176	496.090513865	15.0
5.0278	496.357629389	5.0
5.0381	496.626633933	11.0
5.0483	496.892306061	15.0
5.0586	497.159857002	10.0
5.0688	497.424093534	9.0
5.079	497.687618661	15.0
5.0893	497.953007418	15.0
5.0995	498.215108551	12.0
5.1098	498.479063244	13.0
5.12	498.739748077	16.0
5.1302	498.999731068	8.0
5.1405	499.261552639	14.0
5.1507	499.520130776	7.0
5.161	499.780537558	18.0
5.1712	500.037718432	9.0
5.1814	500.294206898	22.0
5.1917	500.552509231	10.0
5.2019	500.807611726	3.0
5.2122	501.064518287	22.0
5.2224	501.3182423	4.0
5.2326	501.571283212	10.0
5.2429	501.82611361	12.0
5.2531	502.077787181	15.0
5.2634	502.331240567	6.0
5.2736	502.581554184	14.0
5.2838	502.831193882	8.0
5.2941	503.082599013	11.0
5.3043	503.330889748	13.0
5.3146	503.580936376	12.0
5.3248	503.827885438	11.0
5.335	504.074169639	7.0
5.3453	504.322195542	10.0
5.3555	504.567148912	10.0
5.3658	504.813834574	13.0
5.376	505.057464304	12.0
5.3862	505.300438109	12.0
5.3965	505.545130208	6.0
5.4067	505.786791071	11.0
5.417	506.030160941	11.0
5.4272	506.270515956	7.0
5.4374	506.510223863	7.0
5.4477	506.751626967	4.0
5.4579	506.990039579	6.0
5.4682	507.230138227	9.0
5.4784	507.467262544	8.0
5.4886	507.70374845	9.0
5.4989	507.941906768	7.0
5.5091	508.17711479	8.0
5.5194	508.413986186	7.0
5.5296	508.647923229	9.0
5.5398	508.881230443	8.0
5.5501	509.116187588	13.0
5.5603	509.348234095	3.0
5.5706	509.581921616	4.0
5.5808	509.812714227	10.0
5.591	510.042885475	15.0
5.6013	510.274684477	4.0
5.6115	510.503611962	8.0
5.6218	510.734158406	11.0
5.632	510.96184885	13.0
5.6422	511.188926283	7.0
5.6525	511.417609591	9.0
5.6627	511.643459979	5.0
5.673	511.870907565	6.0
5.6832	512.095537539	3.0
5.6934	512.319562743	6.0
5.7037	512.545172236	6.0
5.7139	512.767986888	3.0
5.7242	512.992377268	5.0
5.7344	513.21398791	6.0
5.7446	513.43500191	3.0
5.7549	513.657578904	4.0
5.7651	513.877398624	3.0
5.7754	514.098772893	4.0
5.7856	514.317404786	6.0
5.7958	514.535448057	4.0
5.8061	514.755033314	4.0
5.8163	514.971898358	2.0
5.8266	515.190297054	2.0
5.8368	515.405990238	9.0
5.847	515.621102711	8.0
5.8573	515.837736442	2.0
5.8675	516.051686525	3.0
5.8778	516.267149646	6.0
5.888	516.47994362	5.0
5.8982	516.692164688	2.0
5.9085	516.905886568	3.0
5.9187	517.11696087	1.0
5.929	517.329527874	3.0
5.9392	517.539461607	4.0
5.9494	517.748830135	1.0
5.9597	517.959679302	3.0
5.9699	518.167916478	2.0
5.9802	518.377626292	2.0
5.9904	518.58473823	0.0
6.0006	518.791292561	1.0
6.0109	518.999307628	3.0
6.0211	519.204745813	7.0
6.0314	519.411636842	4.0
6.0416	519.615964913	1.0
6.0518	519.819742872	2.0
6.0621	520.024961934	0.0
6.0723	520.227638751	0.0
6.0826	520.431748882	3.0
6.0928	520.633330507	3.0
6.103	520.834369413	3.0
6.1133	521.036830051	2.0
6.1235	521.236782615	1.0
6.1338	521.438149229	4.0
6.144	521.637021322	4.0
6.1542	521.835357992	1.0
6.1645	522.035097283	5.0
6.1747	522.232362213	1.0
6.185	522.431022185	2.0
6.1952	522.627221167	1.0
6.2054	522.822891922	2.0
6.2157	523.019946445	1.0
6.2259	523.214559866	1.0
6.2362	523.410549578	0.0
6.2464	523.604111378	3.0
6.2566	523.797152052	1.0
6.2669	523.991557895	0.0
6.2771	524.183555446	2.0
6.2874	524.37691079	2.0
6.2976	524.567870856	0.0
6.3078	524.758316801	2.0
6.3181	524.950109564	0.0
6.3283	525.139526407	0.0
6.3386	525.330282792	1.0
6.3488	525.518676095	0.0
6.359	525.706562187	3.0
6.3693	525.895776995	0.0
6.3795	526.082647818	2.0
6.3898	526.270840177	2.0
6.4	526.456701218	0.0
6.4102	526.642061865	0.0
6.4205	526.828733368	0.0
6.4307	527.013092393	0.0
6.441	527.198755191	1.0
6.4512	527.382118006	1.0
6.4614	527.564987154	0.0
6.4717	527.749149538	1.0
6.4819	527.931030527	2.0
6.4922	528.114197765	1.0
6.5024	528.295095934	0.0
6.5126	528.475507072	0.0
6.5229	528.657194063	0.0
6.5331	528.836630324	1.0
6.5434	529.017335544	0.0
6.5536	529.195802196	0.0
6.5638	529.373788362	1.0
6.5741	529.553033233	0.0
6.5843	529.730057627	0.0
6.5946	529.908333923	1.0
6.6048	530.08440174	1.0
6.615	530.25999553	0.0
6.6253	530.436831106	1.0
6.6355	530.611476051	0.0
6.6458	530.787356071	0.0
6.656	530.961057297	0.0
6.6662	531.134290868	0.0
6.6765	531.308749533	0.0
6.6867	531.481047012	0.0
6.697	531.654562965	0.0
6.7072	531.825929411	4.0
6.7174	531.996834486	2.0
6.7277	532.16894819	1.0
6.7379	532.338929756	0.0
6.7482	532.510113419	2.0
6.7584	532.679176466	0.0
6.7686	532.847784345	0.0
6.7789	533.017584606	0.0
6.7891	533.185281388	1.0
6.7994	533.35416411	0.0
6.8096	533.52095472	1.0
6.8198	533.687296279	0.0
6.8301	533.854814194	0.0
6.8403	534.020256903	0.0
6.8506	534.186869611	0.0
6.8608	534.351418328	2.0
6.871	534.515524031	0.0
6.8813	534.680790277	2.0
6.8915	534.844009211	0.0
6.9018	535.008382418	0.0
6.912	535.170719376	1.0
6.9222	535.332619275	1.0
6.9325	535.495664117	1.0
6.9427	535.656689167	0.0
6.953	535.818852974	1.0
6.9632	535.979007903	0.0
6.9734	536.138731646	1.0
6.9837	536.299584944	0.0
6.9939	536.458445599	0.0
7.0042	536.618429703	1.0
7.0144	536.776431932	0.0
7.0246	536.934008771	2.0
7.0349	537.092699982	0.0
7.0451	537.249425332	2.0
7.0554	537.407259033	1.0
7.0656	537.563137497	0.0
7.0758	537.718596289	1.0
7.0861	537.875154474	0.0
7.0963	538.029773222	1.0
7.1066	538.185485423	0.0
7.1168	538.339268668	0.0
7.127	538.492637883	0.0
7.1373	538.647091712	0.0
7.1475	538.799632175	0.0
7.1578	538.953251392	1.0
7.168	539.104967581	0.0
7.1782	539.256275304	0.0
7.1885	539.408653064	0.0
7.1987	539.559143175	2.0
7.209	539.710697541	1.0
7.2192	539.860374458	0.0
7.2294	540.009648399	0.0
7.2397	540.159977995	2.0
7.2499	540.308445314	0.0
7.2602	540.457962583	0.0
7.2704	540.605627639	1.0
7.2806	540.752895135	0.0
7.2909	540.901204097	1.0
7.3011	541.047675813	0.0
7.3114	541.195183366	1.0
7.3216	541.340863602	1.0
7.3318	541.486151624	0.0
7.3421	541.632467111	1.0
7.3523	541.776970048	1.0
7.3626	541.922494899	1.0
7.3728	542.066216994	0.0
7.383	542.209552147	2.0
7.3933	542.353900955	1.0
7.4035	542.496461576	0.0
7.4138	542.640030375	1.0
7.424	542.78182065	1.0
7.4342	542.923229183	1.0
7.4445	543.065637746	1.0
7.4547	543.206282159	1.0
7.465	543.347921198	1.0
7.4752	543.487805618	2.0
7.4854	543.627313428	0.0
7.4957	543.767807827	1.0
7.5059	543.906561787	0.0
7.5162	544.046297004	0.0
7.5264	544.184301188	0.0
7.5366	544.321933823	0.0
7.5469	544.460539786	2.0
7.5571	544.597428704	2.0
7.5674	544.73528569	1.0
7.5776	544.87143491	0.0
7.5878	545.007217575	0.0
7.5981	545.143960485	1.0
7.6083	545.279009429	0.0
7.6186	545.41501343	0.0
7.6288	545.549332619	1.0
7.639	545.68329018	2.0
7.6493	545.81819508	2.0
7.6595	545.951428783	0.0
7.6698	546.085604704	0.0
7.68	546.218118461	0.0
7.6902	546.35027545	0.0
7.7005	546.483367044	2.0
7.7107	546.614809905	0.0
7.721	546.747182319	1.0
7.7312	546.87791491	0.0
7.7414	547.00829553	1.0
7.7517	547.139598192	1.0
7.7619	547.269274282	0.0
7.7722	547.399867431	1.0
7.7824	547.528842798	0.0
7.7926	547.657470925	0.0
7.8029	547.7870087	0.0
7.8131	547.914941767	0.0
7.8234	548.043779567	0.0
7.8336	548.171021329	0.0
7.8438	548.297920519	1.0
7.8541	548.42571713	1.0
7.8643	548.551930602	1.0
7.8746	548.679036647	1.0
7.8848	548.804568107	1.0
7.895	548.929761599	1.0
7.9053	549.05584045	0.0
7.9155	549.180357441	1.0
7.9258	549.305755008	0.0
7.936	549.429599154	1.0
7.9462	549.553109875	0.0
7.9565	549.677494055	2.0
7.9667	549.800337368	0.0
7.977	549.924049421	0.0
7.9872	550.046228933	1.0
7.9974	550.168079502	0.0
8.0077	550.290791789	1.0
8.0179	550.411983921	0.0
8.0282	550.534033115	0.0
8.0384	550.654570369	0.0
8.0486	550.774783101	0.0
8.0589	550.895845967	0.0
8.0691	551.015409113	0.0
8.0794	551.135817799	1.0
