TL-DOS Lehrstuhlversuch
detector=R1406805
job_number=2015-10-15-009
irradiation_dose [mSv]=1.0

[BEGIN DATA]
time [sec] 	 temperature [K] 	 photoncount 
0.0	105.420451598	0.0
0.0102	107.423918281	0.0
0.0205	109.437799567	1.0
0.0307	111.423032572	0.0
0.041	113.418585396	1.0
0.0512	115.38575067	1.0
0.0614	117.343987501	1.0
0.0717	119.312403817	1.0
0.0819	121.252818611	1.0
0.0922	123.203320245	1.0
0.1024	125.126075201	1.0
0.1126	127.040103281	0.0
0.1229	128.964081035	3.0
0.1331	130.860689424	1.0
0.1434	132.767156935	3.0
0.1536	134.64650417	1.0
0.1638	136.517321546	1.0
0.1741	138.397863975	1.0
0.1843	140.251654924	3.0
0.1946	142.115082416	1.0
0.2048	143.952001895	0.0
0.215	145.780584083	2.0
0.2253	147.618671774	2.0
0.2355	149.430611919	0.0
0.2458	151.251971056	2.0
0.256	153.047420619	1.0
0.2662	154.834721112	0.0
0.2765	156.631312513	0.0
0.2867	158.402346671	1.0
0.297	160.182587179	0.0
0.3072	161.937503043	0.0
0.3174	163.684453808	1.0
0.3277	165.440485731	0.0
0.3379	167.171537386	0.0
0.3482	168.911587551	0.0
0.3584	170.626884795	0.0
0.3686	172.33439676	0.0
0.3789	174.050784868	0.0
0.3891	175.742756657	0.0
0.3994	177.443523808	0.0
0.4096	179.120096854	0.0
0.4198	180.78906038	0.0
0.4301	182.466699664	0.0
0.4403	184.120473846	0.0
0.4506	185.782844828	1.0
0.4608	187.421567906	0.0
0.471	189.052853255	0.0
0.4813	190.6926185	0.0
0.4915	192.309057417	1.0
0.5018	193.933899053	0.0
0.512	195.535626657	0.0
0.5222	197.130084444	1.0
0.5325	198.732830685	0.0
0.5427	200.31277721	0.0
0.553	201.900936757	0.0
0.5632	203.466504088	0.0
0.5734	205.024965723	0.0
0.5837	206.591528696	0.0
0.5939	208.135806673	0.0
0.6042	209.688112257	0.0
0.6144	211.218335662	0.0
0.6246	212.741613789	0.0
0.6349	214.272810358	0.0
0.6451	215.782225034	0.0
0.6554	217.299486086	0.0
0.6656	218.795163483	0.0
0.6758	220.284052396	0.0
0.6861	221.780680987	1.0
0.6963	223.256019428	0.0
0.7066	224.739027106	0.0
0.7168	226.200938398	0.0
0.727	227.656214462	1.0
0.7373	229.119055474	0.0
0.7475	230.561086978	0.0
0.7578	232.01061458	0.0
0.768	233.439522064	0.0
0.7782	234.861944115	0.0
0.7885	236.291760329	0.0
0.7987	237.701236826	0.0
0.809	239.118040193	1.0
0.8192	240.514688955	0.0
0.8294	241.904998698	0.0
0.8397	243.302535676	0.0
0.8499	244.680192122	0.0
0.8602	246.065010027	0.0
0.8704	247.430128334	0.0
0.8806	248.789050731	0.0
0.8909	250.155037202	1.0
0.9011	251.50159196	0.0
0.9114	252.855146501	2.0
0.9216	254.189446178	0.0
0.9318	255.517689823	0.0
0.9421	256.852838064	0.0
0.9523	258.168993279	1.0
0.9626	259.491990251	0.0
0.9728	260.796167054	0.0
0.983	262.094424544	0.0
0.9933	263.399430753	0.0
1.0035	264.685872719	0.0
1.0138	265.979001984	0.0
1.024	267.253735959	0.0
1.0342	268.522684255	0.0
1.0445	269.798228913	0.0
1.0547	271.05562843	0.0
1.065	272.319564275	0.0
1.0752	273.565520118	0.0
1.0854	274.805820899	0.0
1.0957	276.052569123	1.0
1.1059	277.281581847	0.0
1.1162	278.516983337	0.0
1.1264	279.734810738	0.0
1.1366	280.947110743	1.0
1.1469	282.165712636	0.0
1.1571	283.366979422	2.0
1.1674	284.574490742	0.0
1.1776	285.764824722	0.0
1.1878	286.949756092	0.0
1.1981	288.14084708	0.0
1.2083	289.314994314	0.0
1.2186	290.495245106	0.0
1.2288	291.658706352	0.0
1.239	292.816886955	0.0
1.2493	293.981088118	0.0
1.2595	295.128728046	0.0
1.2698	296.28233374	1.0
1.28	297.419528924	1.0
1.2902	298.55156268	2.0
1.3005	299.689481077	0.0
1.3107	300.811212122	0.0
1.321	301.938774251	0.0
1.3312	303.050296351	1.0
1.3414	304.156773546	0.0
1.3517	305.269002531	1.0
1.3619	306.365409607	1.0
1.3722	307.467516126	0.0
1.3824	308.553944732	0.0
1.3926	309.635442325	1.0
1.4029	310.722561858	2.0
1.4131	311.794216674	0.0
1.4234	312.871442263	1.0
1.4336	313.93334388	4.0
1.4438	314.990425806	0.0
1.4541	316.053002753	0.0
1.4643	317.10046411	1.0
1.4746	318.153370475	1.0
1.4848	319.19129882	1.0
1.495	320.224516283	1.0
1.5053	321.263104711	0.0
1.5155	322.286918796	3.0
1.5258	323.316054964	3.0
1.536	324.330551252	0.0
1.5462	325.34044301	1.0
1.5565	326.355584479	3.0
1.5667	327.356285148	3.0
1.577	328.36218775	6.0
1.5872	329.353780979	1.0
1.5974	330.340873629	1.0
1.6077	331.333097473	5.0
1.6179	332.31120653	3.0
1.6282	333.294400082	2.0
1.6384	334.263607306	3.0
1.6486	335.228415555	5.0
1.6589	336.198239158	1.0
1.6691	337.154266626	7.0
1.6794	338.115263803	4.0
1.6896	339.062590404	9.0
1.6998	340.005617341	6.0
1.7101	340.953546406	7.0
1.7203	341.887990795	4.0
1.7306	342.827292697	11.0
1.7408	343.753232648	7.0
1.751	344.674970003	10.0
1.7613	345.601498817	13.0
1.7715	346.514847381	9.0
1.7818	347.432943797	14.0
1.792	348.337979918	5.0
1.8022	349.23890832	11.0
1.8125	350.14452001	8.0
1.8227	351.037249006	17.0
1.833	351.934618666	11.0
1.8432	352.819222878	15.0
1.8534	353.699812106	19.0
1.8637	354.584978893	20.0
1.8739	355.457553822	15.0
1.8842	356.33466465	16.0
1.8944	357.199298219	14.0
1.9046	358.060007446	19.0
1.9149	358.92519089	19.0
1.9251	359.778066747	17.0
1.9354	360.635376101	17.0
1.9456	361.480489881	27.0
1.9558	362.321767914	22.0
1.9661	363.167419154	33.0
1.9763	364.001040662	43.0
1.9866	364.838995576	25.0
1.9968	365.665030242	32.0
2.007	366.487315754	26.0
2.0173	367.313875746	28.0
2.0275	368.128677587	47.0
2.0378	368.947715004	34.0
2.048	369.75510128	43.0
2.0582	370.558823045	38.0
2.0685	371.366722788	59.0
2.0787	372.16312983	59.0
2.089	372.963676827	71.0
2.0992	373.752835717	65.0
2.1094	374.538412824	46.0
2.1197	375.32807359	59.0
2.1299	376.10650111	57.0
2.1402	376.888975123	82.0
2.1504	377.660318124	77.0
2.1606	378.428160204	73.0
2.1709	379.199993751	90.0
2.1811	379.960847652	91.0
2.1914	380.725656692	89.0
2.2016	381.479586013	92.0
2.2118	382.230093449	102.0
2.2221	382.98450224	123.0
2.2323	383.728179259	116.0
2.2426	384.475722128	140.0
2.2528	385.212630896	144.0
2.263	385.94619503	125.0
2.2733	386.683572444	131.0
2.2835	387.410460364	131.0
2.2938	388.141126859	145.0
2.304	388.861399327	132.0
2.3142	389.578402668	161.0
2.3245	390.299133201	143.0
2.3347	391.009611049	152.0
2.345	391.723782168	148.0
2.3552	392.427793912	162.0
2.3654	393.128610333	178.0
2.3757	393.833069802	174.0
2.3859	394.527508049	192.0
2.3962	395.225556187	182.0
2.4064	395.913674307	170.0
2.4166	396.598669242	189.0
2.4269	397.287224979	197.0
2.4371	397.96598573	228.0
2.4474	398.648274878	212.0
2.4576	399.320858185	194.0
2.4678	399.990388814	234.0
2.4781	400.663399859	181.0
2.4883	401.326837047	231.0
2.4986	401.993722976	235.0
2.5088	402.65112218	211.0
2.519	403.305537624	202.0
2.5293	403.96335491	212.0
2.5395	404.611814477	221.0
2.5498	405.263644926	199.0
2.56	405.906202821	231.0
2.5702	406.545844317	236.0
2.5805	407.188810855	203.0
2.5907	407.822630932	211.0
2.601	408.459745791	216.0
2.6112	409.087797432	209.0
2.6214	409.712998513	196.0
2.6317	410.341449571	176.0
2.6419	410.960960657	186.0
2.6522	411.583692141	189.0
2.6624	412.197565018	189.0
2.6726	412.808651687	156.0
2.6829	413.422914964	181.0
2.6931	414.028440095	170.0
2.7034	414.637112922	172.0
2.7136	415.23712713	164.0
2.7238	415.834418033	139.0
2.7341	416.434813828	129.0
2.7443	417.026668749	125.0
2.7546	417.621600303	129.0
2.7648	418.208068715	133.0
2.775	418.791875301	115.0
2.7853	419.378716684	117.0
2.7955	419.95721001	121.0
2.8058	420.538710512	113.0
2.816	421.111938933	105.0
2.8262	421.682565623	100.0
2.8365	422.256158595	99.0
2.8467	422.821591975	104.0
2.857	423.389964642	86.0
2.8672	423.950251976	88.0
2.8774	424.507996314	102.0
2.8877	425.06863997	94.0
2.8979	425.621308242	97.0
2.9082	426.176849445	104.0
2.9184	426.724487847	92.0
2.9286	427.269640665	111.0
2.9389	427.817627345	98.0
2.9491	428.357818692	123.0
2.9594	428.90081811	111.0
2.9696	429.436093141	99.0
2.9798	429.9689387	115.0
2.9901	430.504554146	99.0
3.0003	431.032550244	135.0
3.0106	431.56329102	122.0
3.0208	432.086481792	115.0
3.031	432.607297939	121.0
3.0413	433.130821441	108.0
3.0515	433.646897608	142.0
3.0618	434.165656489	129.0
3.072	434.677035814	115.0
3.0822	435.186094123	129.0
3.0925	435.697798666	156.0
3.1027	436.202224004	167.0
3.113	436.709271491	157.0
3.1232	437.209106022	159.0
3.1334	437.706671936	166.0
3.1437	438.206824342	152.0
3.1539	438.699861877	153.0
3.1642	439.195462365	179.0
3.1744	439.684012734	186.0
3.1846	440.170345702	192.0
3.1949	440.659206771	160.0
3.2051	441.141113592	188.0
3.2154	441.625525505	177.0
3.2256	442.103046461	182.0
3.2358	442.578400077	157.0
3.2461	443.056224719	208.0
3.2563	443.527252111	183.0
3.2666	444.00072804	192.0
3.2768	444.467468582	173.0
3.287	444.932090712	185.0
3.2973	445.399128083	200.0
3.3075	445.859521657	195.0
3.3178	446.322308491	162.0
3.328	446.778511995	176.0
3.3382	447.232644911	188.0
3.3485	447.689138543	190.0
3.3587	448.139138367	214.0
3.369	448.591477421	190.0
3.3792	449.037381768	218.0
3.3894	449.481262273	195.0
3.3997	449.927450198	170.0
3.4099	450.367290919	180.0
3.4202	450.809418059	191.0
3.4304	451.245255761	195.0
3.4406	451.679115312	198.0
3.4509	452.11523019	213.0
3.4611	452.545141157	193.0
3.4714	452.977286927	186.0
3.4816	453.403285246	180.0
3.4918	453.827350073	176.0
3.5021	454.253619312	189.0
3.5123	454.673824697	190.0
3.5226	455.096214433	185.0
3.5328	455.512595502	174.0
3.543	455.927086728	170.0
3.5533	456.343732601	166.0
3.5635	456.754451516	135.0
3.5738	457.167305467	148.0
3.584	457.574286404	143.0
3.5942	457.979420161	158.0
3.6045	458.386659922	177.0
3.6147	458.788106532	170.0
3.625	459.191639978	162.0
3.6352	459.589432996	165.0
3.6454	459.985420537	155.0
3.6557	460.383466537	158.0
3.6659	460.775850171	170.0
3.6762	461.170273528	143.0
3.6864	461.559086054	145.0
3.6966	461.946133862	150.0
3.7069	462.335193657	201.0
3.7171	462.718718918	143.0
3.7274	463.104237856	151.0
3.7376	463.484272629	152.0
3.7478	463.862582526	167.0
3.7581	464.242858987	160.0
3.7683	464.617725861	152.0
3.7786	464.994541402	143.0
3.7888	465.365996589	149.0
3.799	465.735765839	153.0
3.8093	466.107457257	141.0
3.8195	466.473861214	147.0
3.8298	466.842169845	173.0
3.84	467.205239136	160.0
3.8502	467.566660552	134.0
3.8605	467.929960741	143.0
3.8707	468.288092838	165.0
3.881	468.648086609	163.0
3.8912	469.002959322	162.0
3.9014	469.356221362	169.0
3.9117	469.711319761	155.0
3.9219	470.061366741	161.0
3.9322	470.413233367	162.0
3.9424	470.760094547	171.0
3.9526	471.105381416	163.0
3.9629	471.452463187	150.0
3.9731	471.794607578	166.0
3.9834	472.138530536	163.0
3.9936	472.477561049	154.0
4.0038	472.815052793	137.0
4.0141	473.154298917	162.0
4.0243	473.488719127	141.0
4.0346	473.824877751	174.0
4.0448	474.156254381	155.0
4.055	474.486126981	167.0
4.0653	474.817714354	128.0
4.0755	475.144584762	134.0
4.0858	475.473154338	150.0
4.096	475.797049878	157.0
4.1062	476.119475342	143.0
4.1165	476.443576867	162.0
4.1267	476.763067916	165.0
4.137	477.084219773	142.0
4.1472	477.400803113	151.0
4.1574	477.715949566	149.0
4.1677	478.032734242	123.0
4.1779	478.345012527	149.0
4.1882	478.658914125	134.0
4.1984	478.968350346	127.0
4.2086	479.276382117	157.0
4.2189	479.586015127	143.0
4.2291	479.891243482	137.0
4.2394	480.198058503	124.0
4.2496	480.500508955	155.0
4.2598	480.801586664	142.0
4.2701	481.104229463	137.0
4.2803	481.402567046	150.0
4.2906	481.702455473	137.0
4.3008	481.998077866	138.0
4.311	482.292358508	148.0
4.3213	482.588168905	151.0
4.3315	482.879771279	122.0
4.3418	483.172889488	143.0
4.352	483.46183797	133.0
4.3622	483.749474992	134.0
4.3725	484.038607235	130.0
4.3827	484.323626455	142.0
4.393	484.610127287	133.0
4.4032	484.892552528	141.0
4.4134	485.173695916	140.0
4.4237	485.456300768	147.0
4.4339	485.734885452	142.0
4.4442	486.014918301	130.0
4.4544	486.290967568	121.0
4.4646	486.56576392	149.0
4.4749	486.841988744	126.0
4.4851	487.114284158	147.0
4.4954	487.387995042	121.0
4.5056	487.657812278	107.0
4.5158	487.926404884	128.0
4.5261	488.196393714	123.0
4.5363	488.462541842	123.0
4.5466	488.730073486	127.0
4.5568	488.993799383	113.0
4.567	489.256328298	132.0
4.5773	489.520221915	110.0
4.5875	489.780361538	103.0
4.5978	490.041853442	130.0
4.608	490.299625518	130.0
4.6182	490.556227635	124.0
4.6285	490.814163644	136.0
4.6387	491.068430408	139.0
4.649	491.324018925	134.0
4.6592	491.575971591	126.0
4.6694	491.826780711	127.0
4.6797	492.07889361	111.0
4.6899	492.3274201	126.0
4.7002	492.577238504	139.0
4.7104	492.823503139	135.0
4.7206	493.068650044	106.0
4.7309	493.315071293	127.0
4.7411	493.557987101	135.0
4.7514	493.802165655	125.0
4.7616	494.04287067	134.0
4.7718	494.282483189	125.0
4.7821	494.523341284	135.0
4.7923	494.760773074	118.0
4.8026	494.999439103	142.0
4.8128	495.234710012	135.0
4.823	495.468913088	145.0
4.8333	495.704333619	119.0
4.8435	495.936405198	121.0
4.8538	496.169683153	119.0
4.864	496.399642633	140.0
4.8742	496.628558389	106.0
4.8845	496.858664115	130.0
4.8947	497.085496494	136.0
4.905	497.313508013	134.0
4.9152	497.538275976	129.0
4.9254	497.762023777	135.0
4.9357	497.986934683	131.0
4.9459	498.208646141	115.0
4.9562	498.431510119	136.0
4.9664	498.651203767	119.0
4.9766	498.869900283	129.0
4.9869	499.089733647	123.0
4.9971	499.306439793	122.0
5.0074	499.52427244	122.0
5.0176	499.739006329	129.0
5.0278	499.952765598	127.0
5.0381	500.167636049	112.0
5.0483	500.379449881	116.0
5.0586	500.592364783	118.0
5.0688	500.802250884	138.0
5.079	501.011184368	125.0
5.0893	501.221203948	118.0
5.0995	501.428235915	127.0
5.1098	501.636344094	107.0
5.12	501.841491849	125.0
5.1302	502.045708493	112.0
5.1405	502.250986715	138.0
5.1507	502.453344771	126.0
5.161	502.656754742	116.0
5.1712	502.857271124	123.0
5.1814	503.056877416	128.0
5.1917	503.257521318	114.0
5.2019	503.45531098	104.0
5.2122	503.65412881	126.0
5.2224	503.850118376	101.0
5.2326	504.045218396	106.0
5.2429	504.241332604	107.0
5.2531	504.434657007	109.0
5.2634	504.628986366	130.0
5.2736	504.820551312	122.0
5.2838	505.011246795	100.0
5.2941	505.202933568	113.0
5.3043	505.391893519	105.0
5.3146	505.581835739	112.0
5.3248	505.769075954	96.0
5.335	505.955466334	101.0
5.3453	506.142825627	102.0
5.3555	506.327519657	84.0
5.3658	506.51317378	73.0
5.376	506.696186898	86.0
5.3862	506.878369368	95.0
5.3965	507.061498876	93.0
5.4067	507.242023292	80.0
5.417	507.423486126	105.0
5.4272	507.602367577	96.0
5.4374	507.780437134	86.0
5.4477	507.959432347	95.0
5.4579	508.135881281	78.0
5.4682	508.313247447	85.0
5.4784	508.488090508	79.0
5.4886	508.662140002	73.0
5.4989	508.837094257	79.0
5.5091	509.009559716	81.0
5.5194	509.1829217	68.0
5.5296	509.35381754	69.0
5.5398	509.523937729	66.0
5.5501	509.694942252	71.0
5.5603	509.863514166	67.0
5.5706	510.032962366	67.0
5.5808	510.200000097	64.0
5.591	510.366279687	72.0
5.6013	510.533423648	64.0
5.6115	510.698189917	70.0
5.6218	510.863812689	66.0
5.632	511.02707941	58.0
5.6422	511.189605107	66.0
5.6525	511.35297566	57.0
5.6627	511.5140222	59.0
5.673	511.675905906	44.0
5.6832	511.835486752	45.0
5.6934	511.994343302	56.0
5.7037	512.154025634	42.0
5.7139	512.311436421	42.0
5.7242	512.469665474	43.0
5.7344	512.625643655	46.0
5.7446	512.780913892	34.0
5.7549	512.93699127	36.0
5.7651	513.090848382	38.0
5.7754	513.245505289	35.0
5.7856	513.397962139	34.0
5.7958	513.549727027	40.0
5.8061	513.702280834	43.0
5.8163	513.8526645	28.0
5.8266	514.003829905	25.0
5.8368	514.15284492	36.0
5.847	514.301183595	41.0
5.8573	514.450293378	38.0
5.8675	514.597282014	27.0
5.8778	514.74503474	21.0
5.888	514.890685622	26.0
5.8982	515.035675435	15.0
5.9085	515.181418946	24.0
5.9187	515.325089196	25.0
5.929	515.469506287	34.0
5.9392	515.611868985	26.0
5.9494	515.753585537	19.0
5.9597	515.896038773	19.0
5.9699	516.036465554	22.0
5.9802	516.177622313	17.0
5.9904	516.316771061	13.0
6.0006	516.455288249	23.0
6.0109	516.59452549	21.0
6.0211	516.731782024	9.0
6.0314	516.869752058	14.0
6.0416	517.005759412	20.0
6.0518	517.141149465	14.0
6.0621	517.277243315	13.0
6.0723	517.411401174	14.0
6.0826	517.546256425	14.0
6.0928	517.679193305	12.0
6.103	517.811526819	12.0
6.1133	517.944548242	15.0
6.1235	518.075677381	7.0
6.1338	518.207488168	15.0
6.144	518.337423892	14.0
6.1542	518.466769873	10.0
6.1645	518.596788231	8.0
6.1747	518.724957026	9.0
6.185	518.853792079	10.0
6.1952	518.980794401	5.0
6.2054	519.107220294	8.0
6.2157	519.234303384	9.0
6.2259	519.359578667	7.0
6.2362	519.485505166	7.0
6.2464	519.60964031	6.0
6.2566	519.733212038	10.0
6.2669	519.857426127	6.0
6.2771	519.97987322	6.0
6.2874	520.102956829	9.0
6.2976	520.224289523	3.0
6.3078	520.345071521	3.0
6.3181	520.466481378	9.0
6.3283	520.586164131	8.0
6.3386	520.70646903	3.0
6.3488	520.825062543	6.0
6.359	520.943117791	2.0
6.3693	521.061786724	3.0
6.3795	521.178767544	4.0
6.3898	521.296356464	2.0
6.4	521.412272634	6.0
6.4102	521.527662691	1.0
6.4205	521.643652579	4.0
6.4307	521.757992464	1.0
6.441	521.87292672	1.0
6.4512	521.986225991	2.0
6.4614	522.099011025	4.0
6.4717	522.21238235	3.0
6.4819	522.324140921	5.0
6.4922	522.436480445	2.0
6.5024	522.547221895	2.0
6.5126	522.657460718	6.0
6.5229	522.768272594	3.0
6.5331	522.877508127	3.0
6.5434	522.987311498	4.0
6.5536	523.095552871	3.0
6.5638	523.203302965	2.0
6.5741	523.311613175	2.0
6.5843	523.418382629	3.0
6.5946	523.525707102	3.0
6.6048	523.63150484	5.0
6.615	523.73682239	2.0
6.6253	523.842687411	3.0
6.6355	523.94704646	4.0
6.6458	524.051947997	6.0
6.656	524.155357267	4.0
6.6662	524.25829719	4.0
6.6765	524.361772225	3.0
6.6867	524.463775285	3.0
6.697	524.566308586	5.0
6.7072	524.66738331	4.0
6.7174	524.767999283	2.0
6.7277	524.869138286	1.0
6.7379	524.968838546	0.0
6.7482	525.069057077	0.0
6.7584	525.167849959	1.0
6.7686	525.266194446	0.0
6.7789	525.365050156	1.0
6.7891	525.462499603	0.0
6.7994	525.560455621	1.0
6.8096	525.657018175	2.0
6.8198	525.753142457	2.0
6.8301	525.849766421	0.0
6.8403	525.94501587	1.0
6.8506	526.040760453	2.0
6.8608	526.13514303	3.0
6.871	526.22909723	2.0
6.8813	526.323539832	4.0
6.8915	526.416638949	2.0
6.9018	526.510222022	1.0
6.912	526.602473838	4.0
6.9222	526.694306947	1.0
6.9325	526.786617431	3.0
6.9427	526.877614762	2.0
6.953	526.969085123	0.0
6.9632	527.059254281	3.0
6.9734	527.149014185	1.0
6.9837	527.239240687	5.0
6.9939	527.32818368	1.0
7.0042	527.417589025	2.0
7.0144	527.505722542	0.0
7.0246	527.593456045	1.0
7.0349	527.681645612	1.0
7.0451	527.768580647	3.0
7.0554	527.855967595	1.0
7.0656	527.942111429	2.0
7.0758	528.027864278	1.0
7.0861	528.114062896	0.0
7.0963	528.199035303	0.0
7.1066	528.284449421	2.0
7.1168	528.368648489	1.0
7.127	528.4524654	0.0
7.1373	528.536718015	2.0
7.1475	528.619772103	2.0
7.1578	528.70325793	1.0
7.168	528.785556137	2.0
7.1782	528.867480814	3.0
7.1885	528.94983136	1.0
7.1987	529.031010436	0.0
7.209	529.112611504	3.0
7.2192	529.193051763	0.0
7.2294	529.273126926	1.0
7.2397	529.353618343	3.0
7.2499	529.432964736	2.0
7.2602	529.512723596	2.0
7.2704	529.591347853	1.0
7.2806	529.669615255	1.0
7.2909	529.748289514	0.0
7.3011	529.8258446	3.0
7.3114	529.903802839	1.0
7.3216	529.980652091	2.0
7.3318	530.057152545	1.0
7.3421	530.13405067	2.0
7.3523	530.209854888	0.0
7.3626	530.286053158	2.0
7.3728	530.361167477	1.0
7.383	530.435940872	1.0
7.3933	530.511102961	0.0
7.4035	530.585195839	1.0
7.4138	530.659673873	2.0
7.424	530.733092427	1.0
7.4342	530.806177753	2.0
7.4445	530.879642998	1.0
7.4547	530.95206317	1.0
7.465	531.024859803	0.0
7.4752	531.096620875	0.0
7.4854	531.168056242	0.0
7.4957	531.239862951	2.0
7.5059	531.31064818	0.0
7.5162	531.381801371	0.0
7.5264	531.451942379	3.0
7.5366	531.521765036	2.0
7.5469	531.591950652	0.0
7.5571	531.661137848	0.0
7.5674	531.7306847	1.0
7.5776	531.799242219	1.0
7.5878	531.867488574	0.0
7.5981	531.936089693	1.0
7.6083	532.003714934	3.0
7.6186	532.07169171	4.0
7.6288	532.138701489	5.0
7.639	532.205407128	1.0
7.6493	532.272459523	1.0
7.6595	532.33855807	0.0
7.6698	532.405000216	0.0
7.68	532.470497196	1.0
7.6902	532.535696903	0.0
7.7005	532.601235536	0.0
7.7107	532.665841856	0.0
7.721	532.730784018	0.0
7.7312	532.794802352	1.0
7.7414	532.858530123	0.0
7.7517	532.92258917	1.0
7.7619	532.985736951	0.0
7.7722	533.049212992	0.0
7.7824	533.111786061	2.0
7.7926	533.174075128	0.0
7.8029	533.23668799	1.0
7.8131	533.29841016	0.0
7.8234	533.360453179	3.0
7.8336	533.421613612	1.0
7.8438	533.482496453	3.0
7.8541	533.543695781	0.0
7.8643	533.604024523	1.0
7.8746	533.664666872	1.0
7.8848	533.724446559	0.0
7.895	533.783954922	0.0
