TL-DOS Lehrstuhlversuch
detector=R1407201
job_number=2015-11-02-008
irradiation_dose [mSv]=0.2

[BEGIN DATA]
time [sec] 	 temperature [K] 	 photoncount 
0.0	188.800921699	0.0
0.0102	190.040066437	0.0
0.0205	191.287379372	0.0
0.0307	192.518653352	2.0
0.041	193.758043647	1.0
0.0512	194.981496864	1.0
0.0614	196.2010773	0.0
0.0717	197.42869697	0.0
0.0819	198.640530917	0.0
0.0922	199.860353033	0.0
0.1024	201.064489694	0.0
0.1126	202.264814721	1.0
0.1229	203.473052053	2.0
0.1331	204.665752897	1.0
0.1434	205.866315788	3.0
0.1536	207.051440875	0.0
0.1638	208.232814507	0.0
0.1741	209.421975521	1.0
0.1843	210.595845344	0.0
0.1946	211.777453085	0.0
0.2048	212.943866763	1.0
0.215	214.106588216	0.0
0.2253	215.276974099	2.0
0.2355	216.432310217	4.0
0.2458	217.595262083	1.0
0.256	218.743259777	0.0
0.2662	219.887623541	0.0
0.2765	221.039530725	0.0
0.2867	222.176625759	0.0
0.297	223.321216298	0.0
0.3072	224.45108877	0.0
0.3174	225.577384688	0.0
0.3277	226.711104925	0.0
0.3379	227.830246874	0.0
0.3482	228.956765986	0.0
0.3584	230.068799407	0.0
0.3686	231.177312743	0.0
0.3789	232.293133179	0.0
0.3891	233.394605497	0.0
0.3994	234.503338502	0.0
0.4096	235.597814526	0.0
0.4198	236.688826041	0.0
0.4301	237.787029287	0.0
0.4403	238.871110952	0.0
0.4506	239.962338669	0.0
0.4608	241.0395345	0.0
0.471	242.113320523	0.0
0.4813	243.19418473	0.0
0.4915	244.261150315	0.0
0.5018	245.335149125	0.0
0.512	246.395337594	0.0
0.5222	247.45217009	0.0
0.5325	248.515969016	0.0
0.5427	249.566088759	0.0
0.553	250.623130683	0.0
0.5632	251.666580311	0.0
0.5734	252.706726951	0.0
0.5837	253.753730032	0.0
0.5939	254.787269904	0.0
0.6042	255.827622667	0.0
0.6144	256.854597736	0.0
0.6246	257.878321966	0.0
0.6349	258.908794384	0.0
0.6451	259.926016158	1.0
0.6554	260.949943257	1.0
0.6656	261.960703876	0.0
0.6758	262.968264983	0.0
0.6861	263.982467734	0.0
0.6963	264.983629048	0.0
0.7066	265.99138982	0.0
0.7168	266.986191993	0.0
0.727	267.977845168	0.0
0.7373	268.976035126	0.0
0.7475	269.961389553	0.0
0.7578	270.953239241	0.0
0.768	271.932334927	0.0
0.7782	272.908331335	1.0
0.7885	273.890761318	0.0
0.7987	274.860558425	0.0
0.809	275.836748242	0.0
0.8192	276.800385425	1.0
0.8294	277.760972262	0.0
0.8397	278.727891098	0.0
0.8499	279.682376513	0.0
0.8602	280.643153706	1.0
0.8704	281.591576453	0.0
0.8806	282.536997015	0.0
0.8909	283.488649602	0.0
0.9011	284.428065074	0.0
0.9114	285.373672986	0.0
0.9216	286.307121511	0.0
0.9318	287.237615251	0.0
0.9421	288.174242621	0.0
0.9523	289.098826083	0.0
0.9626	290.029504215	0.0
0.9728	290.948214939	0.0
0.983	291.86401753	0.0
0.9933	292.78585691	0.0
1.0035	293.695842537	0.0
1.0138	294.611826609	0.0
1.024	295.51603222	0.0
1.0342	296.417375614	0.0
1.0445	297.324660485	0.0
1.0547	298.220278756	0.0
1.065	299.121800766	0.0
1.0752	300.01173028	0.0
1.0854	300.898842766	0.0
1.0957	301.791802922	0.0
1.1059	302.673280678	0.0
1.1162	303.56056896	0.0
1.1264	304.436447775	0.0
1.1366	305.309554039	0.0
1.1469	306.188415647	1.0
1.1571	307.055976145	1.0
1.1674	307.92925543	0.0
1.1776	308.791305387	0.0
1.1878	309.650626567	0.0
1.1981	310.515612223	0.0
1.2083	311.369475196	1.0
1.2186	312.228966665	0.0
1.2288	313.077406101	0.0
1.239	313.923159844	0.0
1.2493	314.774488628	1.0
1.2595	315.614870342	0.0
1.2698	316.460791685	0.0
1.28	317.29583549	0.0
1.2902	318.128236006	0.0
1.3005	318.966123541	1.0
1.3107	319.793236844	0.0
1.321	320.625802314	1.0
1.3312	321.447661986	0.0
1.3414	322.266920103	0.0
1.3517	323.091578607	0.0
1.3619	323.905632988	1.0
1.3722	324.725053454	0.0
1.3824	325.533937152	0.0
1.3926	326.340260369	0.0
1.4029	327.151898709	1.0
1.4131	327.95310035	1.0
1.4234	328.759583354	0.0
1.4336	329.555695949	0.0
1.4438	330.34928849	0.0
1.4541	331.148112236	1.0
1.4643	331.936664062	0.0
1.4746	332.730413867	1.0
1.4848	333.513956997	2.0
1.495	334.29501986	1.0
1.5053	335.081231335	2.0
1.5155	335.85733307	0.0
1.5258	336.638550714	0.0
1.536	337.409722833	1.0
1.5462	338.178453844	1.0
1.5565	338.952252178	0.0
1.5667	339.716100391	1.0
1.577	340.484983739	0.0
1.5872	341.243980166	0.0
1.5974	342.000574028	0.0
1.6077	342.762155207	1.0
1.6179	343.513943361	0.0
1.6282	344.270687155	1.0
1.6384	345.017700127	1.0
1.6486	345.762348467	2.0
1.6589	346.511905381	1.0
1.6691	347.251823889	1.0
1.6794	347.996619794	1.0
1.6896	348.731838512	1.0
1.6998	349.464729933	0.0
1.7101	350.202452429	0.0
1.7203	350.930688695	2.0
1.7306	351.66372535	2.0
1.7408	352.38733603	2.0
1.751	353.108656156	0.0
1.7613	353.834731082	2.0
1.7715	354.551469552	3.0
1.7818	355.272932619	4.0
1.792	355.985118534	1.0
1.8022	356.695050059	6.0
1.8125	357.409661313	3.0
1.8227	358.11508352	4.0
1.833	358.82515573	3.0
1.8432	359.52609726	3.0
1.8534	360.224819995	3.0
1.8637	360.928148571	2.0
1.8739	361.622433183	2.0
1.8842	362.321294381	4.0
1.8944	363.011169059	0.0
1.9046	363.698859973	2.0
1.9149	364.391084009	4.0
1.9251	365.074406872	3.0
1.9354	365.762234063	6.0
1.9456	366.441216619	4.0
1.9558	367.118049889	3.0
1.9661	367.79934471	7.0
1.9763	368.471878894	6.0
1.9866	369.14884629	2.0
1.9968	369.817108694	4.0
2.007	370.483255746	3.0
2.0173	371.153793908	7.0
2.0275	371.815709751	8.0
2.0378	372.481988812	7.0
2.048	373.13970032	10.0
2.0582	373.795329875	5.0
2.0685	374.45528121	6.0
2.0787	375.10674636	14.0
2.089	375.762505839	7.0
2.0992	376.409833034	9.0
2.1094	377.055111148	8.0
2.1197	377.704642807	5.0
2.1299	378.345822265	13.0
2.1402	378.991228251	9.0
2.1504	379.628335087	9.0
2.1606	380.263425193	12.0
2.1709	380.902701688	18.0
2.1811	381.533757851	15.0
2.1914	382.16897381	14.0
2.2016	382.796021652	12.0
2.2118	383.421084605	19.0
2.2221	384.050267849	13.0
2.2323	384.671360548	11.0
2.2426	385.296547368	19.0
2.2528	385.913695032	23.0
2.263	386.528889146	16.0
2.2733	387.148138497	22.0
2.2835	387.759425042	20.0
2.2938	388.374741067	26.0
2.304	388.982144862	22.0
2.3142	389.587625952	29.0
2.3245	390.197098252	28.0
2.3347	390.798733468	22.0
2.345	391.404334543	26.0
2.3552	392.002148312	21.0
2.3654	392.598069732	26.0
2.3757	393.197919347	27.0
2.3859	393.790055613	22.0
2.3962	394.386095124	23.0
2.4064	394.97447028	31.0
2.4166	395.560982963	32.0
2.4269	396.151361821	37.0
2.4371	396.734149113	26.0
2.4474	397.320778023	22.0
2.4576	397.899863586	27.0
2.4678	398.477116083	35.0
2.4781	399.058173714	24.0
2.4883	399.631759638	26.0
2.4986	400.209126527	33.0
2.5088	400.779069167	22.0
2.519	401.347207683	34.0
2.5293	401.919091255	32.0
2.5395	402.483621088	27.0
2.5498	403.051872189	28.0
2.56	403.612816261	40.0
2.5702	404.171984691	34.0
2.5805	404.73483905	34.0
2.5907	405.290455774	25.0
2.601	405.849735013	41.0
2.6112	406.40182259	37.0
2.6214	406.95216256	25.0
2.6317	407.506130263	38.0
2.6419	408.052974604	35.0
2.6522	408.603423633	29.0
2.6624	409.146794546	22.0
2.6726	409.688445446	28.0
2.6829	410.233666801	31.0
2.6931	410.77187726	40.0
2.7034	411.313635497	28.0
2.7136	411.84842737	33.0
2.7238	412.381526386	27.0
2.7341	412.918139485	29.0
2.7443	413.44785238	25.0
2.7546	413.981057038	27.0
2.7648	414.507405322	29.0
2.775	415.032087476	21.0
2.7853	415.560228231	21.0
2.7955	416.081577727	14.0
2.8058	416.606363855	27.0
2.816	417.124401861	19.0
2.8262	417.640800044	12.0
2.8365	418.160602221	19.0
2.8467	418.673720363	22.0
2.857	419.190220879	26.0
2.8672	419.700079814	20.0
2.8774	420.208324817	21.0
2.8877	420.71992007	19.0
2.8979	421.22493682	15.0
2.9082	421.73328254	19.0
2.9184	422.235091541	21.0
2.9286	422.735312091	14.0
2.9389	423.238829996	19.0
2.9491	423.735873262	20.0
2.9594	424.236192939	29.0
2.9696	424.730079102	17.0
2.9798	425.222401894	24.0
2.9901	425.71796998	12.0
3.0003	426.207165653	20.0
3.0106	426.699586006	15.0
3.0208	427.185674422	14.0
3.031	427.67022415	17.0
3.0413	428.157967933	23.0
3.0515	428.639439914	20.0
3.0618	429.124085663	15.0
3.072	429.602499447	27.0
3.0822	430.079398836	26.0
3.0925	430.559441851	25.0
3.1027	431.033312086	19.0
3.113	431.510305981	33.0
3.1232	431.981166303	29.0
3.1334	432.450536141	24.0
3.1437	432.922999972	19.0
3.1539	433.389388482	23.0
3.1642	433.858851334	27.0
3.1744	434.322277453	29.0
3.1846	434.784236621	23.0
3.1949	435.249240932	30.0
3.2051	435.708265843	24.0
3.2154	436.170316555	28.0
3.2256	436.626425848	24.0
3.2358	437.081091349	33.0
3.2461	437.538753915	38.0
3.2563	437.990531487	27.0
3.2666	438.445287088	24.0
3.2768	438.894195075	30.0
3.287	439.341682066	31.0
3.2973	439.792118802	32.0
3.3075	440.236763461	40.0
3.3178	440.684339129	30.0
3.328	441.126159508	34.0
3.3382	441.566581328	35.0
3.3485	442.00990632	38.0
3.3587	442.447530683	26.0
3.369	442.888039779	39.0
3.3792	443.322884455	29.0
3.3894	443.756352651	41.0
3.3997	444.192678184	34.0
3.4099	444.623393092	37.0
3.4202	445.056947187	42.0
3.4304	445.484926295	40.0
3.4406	445.911550656	39.0
3.4509	446.34098724	38.0
3.4611	446.764901783	37.0
3.4714	447.191610687	37.0
3.4816	447.612832624	24.0
3.4918	448.032721204	39.0
3.5021	448.455377606	23.0
3.5123	448.872599152	34.0
3.5226	449.29257094	32.0
3.5328	449.707142392	42.0
3.543	450.120401539	31.0
3.5533	450.536384809	31.0
3.5635	450.947019031	33.0
3.5738	451.360360072	34.0
3.584	451.768386042	37.0
3.5942	452.175120425	31.0
3.6045	452.584535921	24.0
3.6147	452.988686823	42.0
3.625	453.395501808	31.0
3.6352	453.797085638	34.0
3.6454	454.197398274	27.0
3.6557	454.600349692	32.0
3.6659	454.998119636	26.0
3.6762	455.398511601	32.0
3.6864	455.793755004	25.0
3.6966	456.187747283	26.0
3.7069	456.584336682	13.0
3.7171	456.975826415	34.0
3.7274	457.36989677	24.0
3.7376	457.758899852	33.0
3.7478	458.146671563	28.0
3.7581	458.536999389	22.0
3.7683	458.922308066	31.0
3.7786	459.310156621	21.0
3.7888	459.693017907	21.0
3.799	460.074667265	34.0
3.8093	460.45883238	36.0
3.8195	460.83805759	32.0
3.8298	461.219782578	37.0
3.84	461.596599038	36.0
3.8502	461.972222705	38.0
3.8605	462.350322409	34.0
3.8707	462.723560202	22.0
3.881	463.099258305	24.0
3.8912	463.470125379	28.0
3.9014	463.839818492	27.0
3.9117	464.211948549	39.0
3.9219	464.579293458	24.0
3.9322	464.949059832	21.0
3.9424	465.314071452	22.0
3.9526	465.677927646	25.0
3.9629	466.044182307	19.0
3.9731	466.405727372	34.0
3.9834	466.76965567	29.0
3.9936	467.128904285	30.0
4.0038	467.487015716	25.0
4.0141	467.847487747	22.0
4.0243	468.203324539	32.0
4.0346	468.561506936	21.0
4.0448	468.915083535	39.0
4.055	469.267540905	29.0
4.0653	469.622321605	29.0
4.0755	469.972540248	24.0
4.0858	470.325067464	29.0
4.096	470.673061601	27.0
4.1062	471.019954179	28.0
4.1165	471.369133405	30.0
4.1267	471.713822603	37.0
4.137	472.060783925	29.0
4.1472	472.403283738	31.0
4.1574	472.744699385	32.0
4.1677	473.088365576	28.0
4.1779	473.427612631	29.0
4.1882	473.769095935	25.0
4.1984	474.106188172	25.0
4.2086	474.44221336	23.0
4.2189	474.78045356	20.0
4.2291	475.114344395	20.0
4.2394	475.450436172	28.0
4.2496	475.78220621	24.0
4.2598	476.112926047	25.0
4.2701	476.445825924	34.0
4.2803	476.774445106	22.0
4.2906	477.105230481	19.0
4.3008	477.43176235	29.0
4.311	477.7572606	30.0
4.3213	478.084904469	21.0
4.3315	478.40833523	38.0
4.3418	478.733897983	31.0
4.352	479.055274387	25.0
4.3622	479.37563349	21.0
4.3725	479.698104337	19.0
4.3827	480.016428595	22.0
4.393	480.336851183	20.0
4.4032	480.653153519	19.0
4.4134	480.968454616	29.0
4.4237	481.285834115	22.0
4.4339	481.599132493	24.0
4.4442	481.914496072	17.0
4.4544	482.225804452	23.0
4.4646	482.536127401	26.0
4.4749	482.848495938	27.0
4.4851	483.156847788	11.0
4.4954	483.467232233	24.0
4.5056	483.773625504	16.0
4.5158	484.079048903	24.0
4.5261	484.386485593	16.0
4.5363	484.689969014	21.0
4.5466	484.995452937	26.0
4.5568	485.297008703	33.0
4.567	485.597609908	22.0
4.5773	485.900192618	20.0
4.5875	486.198884475	17.0
4.5978	486.499545249	25.0
4.608	486.796339886	30.0
4.6182	487.092195033	35.0
4.6285	487.3900004	18.0
4.6387	487.683976345	22.0
4.649	487.979890121	20.0
4.6592	488.2719988	31.0
4.6694	488.563182823	19.0
4.6797	488.856286274	28.0
4.6899	489.145620764	23.0
4.7002	489.436862491	15.0
4.7104	489.724359196	23.0
4.7206	490.010945845	13.0
4.7309	490.299421617	27.0
4.7411	490.584187935	25.0
4.7514	490.870831375	26.0
4.7616	491.153788924	17.0
4.7718	491.435850785	27.0
4.7821	491.719771942	26.0
4.7923	492.000042212	15.0
4.8026	492.282159968	26.0
4.8128	492.560650026	17.0
4.823	492.838258539	26.0
4.8333	493.117696991	21.0
4.8435	493.393542199	20.0
4.8538	493.671205724	20.0
4.864	493.945298828	20.0
4.8742	494.218524304	24.0
4.8845	494.493550828	23.0
4.8947	494.76504084	25.0
4.905	495.03832046	25.0
4.9152	495.30808603	29.0
4.9254	495.576997671	15.0
4.9357	495.847681925	20.0
4.9459	496.114885502	13.0
4.9562	496.383850432	27.0
4.9664	496.649356795	30.0
4.9766	496.914022711	22.0
4.9869	497.180433252	13.0
4.9971	497.443418071	24.0
5.0074	497.708136435	24.0
5.0176	497.969450836	28.0
5.0278	498.22993806	20.0
5.0381	498.492142364	17.0
5.0483	498.750975034	18.0
5.0586	499.011513878	25.0
5.0688	499.268702504	22.0
5.079	499.525077011	19.0
5.0893	499.783141489	24.0
5.0995	500.037887566	19.0
5.1098	500.294312879	20.0
5.12	500.547440868	25.0
5.1302	500.799767594	23.0
5.1405	501.053757607	13.0
5.1507	501.304481612	20.0
5.161	501.55685834	27.0
5.1712	501.805989805	25.0
5.1814	502.054332657	26.0
5.1917	502.304312535	19.0
5.2019	502.551077971	27.0
5.2122	502.799470036	23.0
5.2224	503.044668076	17.0
5.2326	503.289089954	25.0
5.2429	503.535123012	21.0
5.2531	503.777992379	19.0
5.2634	504.022462693	19.0
5.2736	504.263789411	20.0
5.2838	504.504352221	26.0
5.2941	504.746500773	26.0
5.3043	504.985535584	25.0
5.3146	505.226146066	20.0
5.3248	505.463662584	18.0
5.335	505.700427256	21.0
5.3453	505.938752633	17.0
5.3555	506.174013431	19.0
5.3658	506.410825021	10.0
5.376	506.644591497	23.0
5.3862	506.877617997	17.0
5.3965	507.112180562	19.0
5.4067	507.343726932	24.0
5.417	507.57679961	15.0
5.4272	507.806875252	16.0
5.4374	508.036222601	10.0
5.4477	508.267081763	15.0
5.4579	508.494972351	18.0
5.4682	508.724365149	12.0
5.4784	508.95080823	20.0
5.4886	509.176534516	17.0
5.4989	509.403748746	13.0
5.5091	509.628041271	11.0
5.5194	509.853812289	12.0
5.5296	510.076680161	16.0
5.5398	510.298842557	18.0
5.5501	510.522469402	12.0
5.5603	510.743220674	7.0
5.5706	510.965427094	11.0
5.5808	511.184776205	8.0
5.591	511.403430978	20.0
5.6013	511.623527079	11.0
5.6115	511.840793008	19.0
5.6218	512.05949111	17.0
5.632	512.275377017	10.0
5.6422	512.490579547	17.0
5.6525	512.707200649	13.0
5.6627	512.921036264	10.0
5.673	513.13628144	10.0
5.6832	513.34875882	10.0
5.6934	513.560563614	17.0
5.7037	513.773764583	9.0
5.7139	513.984224042	5.0
5.7242	514.196070809	14.0
5.7344	514.405193479	9.0
5.7446	514.613654181	11.0
5.7549	514.823489016	4.0
5.7651	515.030625625	10.0
5.7754	515.239127638	8.0
5.7856	515.444948563	10.0
5.7958	515.650117973	5.0
5.8061	515.85663982	9.0
5.8163	516.060506042	11.0
5.8266	516.265716109	8.0
5.8368	516.468287421	7.0
5.847	516.670217503	10.0
5.8573	516.873478668	14.0
5.8675	517.074126137	8.0
5.8778	517.276096235	9.0
5.888	517.475469239	7.0
5.8982	517.674211137	8.0
5.9085	517.874263103	9.0
5.9187	518.071742639	5.0
5.929	518.270523922	4.0
5.9392	518.466749114	8.0
5.9494	518.662353166	6.0
5.9597	518.8592466	5.0
5.9699	519.053608221	4.0
5.9802	519.249251034	5.0
5.9904	519.442378115	3.0
6.0006	519.634893862	9.0
6.0109	519.828678634	6.0
6.0211	520.019971566	3.0
6.0314	520.212525463	6.0
6.0416	520.402603347	2.0
6.0518	520.592079549	7.0
6.0621	520.78280474	3.0
6.0723	520.971077433	1.0
6.0826	521.160591183	1.0
6.0928	521.347668012	4.0
6.103	521.534152659	7.0
6.1133	521.721866576	4.0
6.1235	521.907166716	5.0
6.1338	522.093688318	1.0
6.144	522.277811474	0.0
6.1542	522.461351799	3.0
6.1645	522.646101984	1.0
6.1747	522.828476504	5.0
6.185	523.012053199	2.0
6.1952	523.193269318	0.0
6.2054	523.373911806	1.0
6.2157	523.555745054	3.0
6.2259	523.735240144	2.0
6.2362	523.915918429	1.0
6.2464	524.094273408	1.0
6.2566	524.272063813	0.0
6.2669	524.451026177	1.0
6.2771	524.627687298	0.0
6.2874	524.805512935	3.0
6.2976	524.981051947	1.0
6.3078	525.156035299	5.0
6.3181	525.332172106	1.0
6.3283	525.506044005	2.0
6.3386	525.681062032	1.0
6.3488	525.853829537	0.0
6.359	526.026050155	3.0
6.3693	526.199406017	1.0
6.3795	526.37053273	2.0
6.3898	526.542787476	0.0
6.4	526.712827233	2.0
6.4102	526.882328736	0.0
6.4205	527.05294756	4.0
6.4307	527.22137243	2.0
6.441	527.390907523	1.0
6.4512	527.558262598	1.0
6.4614	527.725087918	0.0
6.4717	527.893012918	0.0
6.4819	528.058778603	1.0
6.4922	528.225636983	0.0
6.5024	528.390349763	0.0
6.5126	528.554541153	0.0
6.5229	528.71981486	2.0
6.5331	528.882963345	3.0
6.5434	529.047187272	1.0
6.5536	529.209299476	0.0
6.5638	529.370898522	3.0
6.5741	529.533562796	1.0
6.5843	529.694135403	0.0
6.5946	529.855766472	0.0
6.6048	530.015319159	1.0
6.615	530.174366789	1.0
6.6253	530.33446283	1.0
6.6355	530.492500228	1.0
6.6458	530.651579376	2.0
6.656	530.808612957	0.0
6.6662	530.965149456	1.0
6.6765	531.122717813	1.0
6.6867	531.278260028	0.0
6.697	531.434827548	1.0
6.7072	531.589381795	0.0
6.7174	531.74344681	0.0
6.7277	531.89852739	0.0
6.7379	532.051613819	0.0
6.7482	532.205709364	0.0
6.7584	532.357823424	0.0
6.7686	532.509455975	0.0
6.7789	532.662088057	1.0
6.7891	532.812757473	0.0
6.7994	532.964420072	0.0
6.8096	533.114132472	0.0
6.8198	533.263370964	0.0
6.8301	533.413593206	1.0
6.8403	533.561883771	1.0
6.8506	533.711151837	1.0
6.8608	533.858500494	0.0
6.871	534.005382727	0.0
6.8813	534.153233178	1.0
6.8915	534.299182449	1.0
6.9018	534.446093788	0.0
6.912	534.591116023	1.0
6.9222	534.735679198	1.0
6.9325	534.881195304	0.0
6.9427	535.024840248	0.0
6.953	535.16943207	1.0
6.9632	535.312164614	0.0
6.9734	535.454445345	0.0
6.9837	535.597663963	0.0
6.9939	535.739040961	0.0
7.0042	535.881349887	1.0
7.0144	536.021828891	0.0
7.0246	536.161863216	1.0
7.0349	536.302820619	0.0
7.0451	536.441965478	1.0
7.0554	536.582027553	0.0
7.0656	536.720288597	0.0
7.0758	536.858111982	0.0
7.0861	536.996843872	1.0
7.0963	537.133791835	0.0
7.1066	537.271642533	1.0
7.1168	537.407720635	0.0
7.127	537.543367988	1.0
7.1373	537.679909502	1.0
7.1475	537.814695256	1.0
7.1578	537.95036949	1.0
7.168	538.084299116	3.0
7.1782	538.217804794	0.0
7.1885	538.352190516	0.0
7.1987	538.484848197	0.0
7.209	538.618380332	2.0
7.2192	538.750195403	0.0
7.2294	538.881593219	0.0
7.2397	539.013857185	1.0
7.2499	539.144420393	2.0
7.2602	539.275844249	0.0
7.2704	539.405578151	2.0
7.2806	539.534901386	1.0
7.2909	539.665077095	0.0
7.3011	539.7935789	0.0
7.3114	539.922927763	0.0
7.3216	540.050613354	1.0
7.3318	540.177894763	1.0
7.3421	540.306015186	0.0
7.3523	540.432488133	0.0
7.3626	540.559794765	0.0
7.3728	540.685464386	1.0
7.383	540.810736205	0.0
7.3933	540.936833792	0.0
7.4035	541.061309914	1.0
7.4138	541.186606559	2.0
7.424	541.310292038	1.0
7.4342	541.433585997	0.0
7.4445	541.557692686	1.0
7.4547	541.68020351	1.0
7.465	541.803521902	1.0
7.4752	541.925254567	0.0
7.4854	542.046601893	0.0
7.4957	542.168749116	0.0
7.5059	542.289325672	0.0
7.5162	542.410697045	0.0
7.5264	542.530507727	1.0
7.5366	542.649939154	0.0
7.5469	542.77015785	0.0
7.5571	542.888830677	0.0
7.5674	543.008285772	0.0
7.5776	543.126204816	0.0
7.5878	543.243750594	0.0
7.5981	543.362071211	1.0
7.6083	543.478870366	1.0
7.6186	543.596439437	0.0
7.6288	543.712496711	0.0
7.639	543.828186611	0.0
7.6493	543.944639117	1.0
7.6595	544.059594182	2.0
7.6698	544.175307008	0.0
7.68	544.289531905	1.0
7.6902	544.40339523	0.0
7.7005	544.518009118	1.0
7.7107	544.63114921	0.0
7.721	544.745035098	1.0
7.7312	544.857456549	2.0
7.7414	544.969522137	0.0
7.7517	545.082326438	0.0
7.7619	545.193680211	1.0
7.7722	545.305768006	1.0
7.7824	545.416414485	2.0
7.7926	545.526710719	0.0
7.8029	545.637734004	0.0
7.8131	545.747329662	0.0
7.8234	545.857647753	0.0
7.8336	545.966547285	0.0
7.8438	546.075102101	2.0
7.8541	546.184372489	1.0
7.8643	546.29223779	0.0
7.8746	546.400814118	2.0
7.8848	546.507994284	0.0
7.895	546.614835176	2.0
7.9053	546.722380343	1.0
7.9155	546.828542607	0.0
7.9258	546.935404672	0.0
7.936	547.040892618	0.0
7.9462	547.146046648	2.0
7.9565	547.251893832	1.0
7.9667	547.356379948	2.0
7.977	547.461554816	0.0
7.9872	547.56537726	0.0
7.9974	547.66887106	2.0
8.0077	547.77304707	0.0
8.0179	547.875883501	1.0
8.0282	547.97939781	0.0
8.0384	548.081581048	0.0
8.0486	548.183440831	0.0
