TL-DOS Lehrstuhlversuch
detector=R1406804
job_number=2015-11-05-006
irradiation_dose [mSv]=0.07

[BEGIN DATA]
time [sec] 	 temperature [K] 	 photoncount 
0.0	90.3420454232	0.0
0.0102	92.4857152842	0.0
0.0205	94.6403572531	1.0
0.0307	96.7641797005	2.0
0.041	98.8988726692	0.0
0.0512	101.003031462	0.0
0.0614	103.097474323	1.0
0.0717	105.202637328	2.0
0.0819	107.277688549	1.0
0.0922	109.363360661	3.0
0.1024	111.419199781	3.0
0.1126	113.465546084	2.0
0.1229	115.522366356	0.0
0.1331	117.549766327	1.0
0.1434	119.587543292	2.0
0.1536	121.596172347	3.0
0.1638	123.595526576	0.0
0.1741	125.605114252	1.0
0.1843	127.585957231	2.0
0.1946	129.576938908	1.0
0.2048	131.539442025	3.0
0.215	133.492883302	0.0
0.2253	135.456323025	0.0
0.2355	137.391678142	2.0
0.2458	139.336939133	1.0
0.256	141.254375542	0.0
0.2662	143.162958207	1.0
0.2765	145.081309714	0.0
0.2867	146.972221547	1.0
0.297	148.872811777	0.0
0.3072	150.746216386	0.0
0.3174	152.610970566	0.0
0.3277	154.485269259	0.0
0.3379	156.332758399	0.0
0.3482	158.189703682	0.0
0.3584	160.020087632	0.0
0.3686	161.8420198	0.0
0.3789	163.673277303	0.0
0.3891	165.478340903	0.0
0.3994	167.292643498	0.0
0.4096	169.08099471	1.0
0.4198	170.861088227	0.0
0.4301	172.650292932	1.0
0.4403	174.413905249	1.0
0.4506	176.186544396	0.0
0.4608	177.933828106	0.0
0.471	179.67304375	0.0
0.4813	181.421161353	0.0
0.4915	183.144274269	0.0
0.5018	184.876206725	0.0
0.512	186.583366002	0.0
0.5222	188.282642487	0.0
0.5325	189.990616509	0.0
0.5427	191.674160048	0.0
0.553	193.366320595	0.0
0.5632	195.034276853	0.0
0.5734	196.694531339	0.0
0.5837	198.363283631	0.0
0.5939	200.00816646	0.0
0.6042	201.661468417	0.0
0.6144	203.291121909	0.0
0.6246	204.913250492	0.0
0.6349	206.543681738	0.0
0.6451	208.150791657	0.0
0.6554	209.766127369	0.0
0.6656	211.358357676	0.0
0.6758	212.943235875	0.0
0.6861	214.536226076	0.0
0.6963	216.106430498	0.0
0.7066	217.684671816	0.0
0.7168	219.24033832	0.0
0.727	220.788821549	0.0
0.7373	222.345230497	0.0
0.7475	223.879376916	0.0
0.7578	225.421375673	1.0
0.768	226.941318021	0.0
0.7782	228.45424205	1.0
0.7885	229.974909793	0.0
0.7987	231.473826241	0.0
0.809	232.980414706	0.0
0.8192	234.465453264	0.0
0.8294	235.943634671	0.0
0.8397	237.429381965	0.0
0.8499	238.893877459	0.0
0.8602	240.365868792	0.0
0.8704	241.816805086	0.0
0.8806	243.261041696	0.0
0.8909	244.712670452	2.0
0.9011	246.143535431	0.0
0.9114	247.581724115	1.0
0.9216	248.999341266	0.0
0.9318	250.410412584	0.0
0.9421	251.828706296	0.0
0.9523	253.226713048	0.0
0.9626	254.631875324	0.0
0.9728	256.01693847	0.0
0.983	257.3956061	0.0
0.9933	258.781330269	0.0
1.0035	260.147233346	0.0
1.0138	261.520127629	1.0
1.024	262.873384336	0.0
1.0342	264.220392393	1.0
1.0445	265.574294943	0.0
1.0547	266.908831572	0.0
1.065	268.25019886	0.0
1.0752	269.572379527	0.0
1.0854	270.888455038	0.0
1.0957	272.211266718	0.0
1.1059	273.515157193	0.0
1.1162	274.825721469	1.0
1.1264	276.117539724	0.0
1.1366	277.40339302	0.0
1.1469	278.695827797	0.0
1.1571	279.969775873	0.0
1.1674	281.250244494	1.0
1.1776	282.512397575	0.0
1.1878	283.768722677	0.0
1.1981	285.031478123	2.0
1.2083	286.276171394	0.0
1.2186	287.527235473	1.0
1.2288	288.760404609	1.0
1.239	289.987879598	0.0
1.2493	291.221637265	2.0
1.2595	292.437747536	0.0
1.2698	293.660082316	3.0
1.28	294.86493309	0.0
1.2902	296.064220478	2.0
1.3005	297.269646268	1.0
1.3107	298.457829915	0.0
1.321	299.652095133	0.0
1.3312	300.829277845	0.0
1.3414	302.001024928	0.0
1.3517	303.178769452	1.0
1.3619	304.33966778	0.0
1.3722	305.506508021	2.0
1.3824	306.656658038	0.0
1.3926	307.801497249	0.0
1.4029	308.952196176	1.0
1.4131	310.086435761	0.0
1.4234	311.226480811	1.0
1.4336	312.350218908	2.0
1.4438	313.468768156	2.0
1.4541	314.593042558	0.0
1.4643	315.701235589	1.0
1.4746	316.815100769	2.0
1.4848	317.913033467	2.0
1.495	319.005896472	0.0
1.5053	320.10435316	0.0
1.5155	321.187097767	0.0
1.5258	322.275384267	1.0
1.536	323.348104159	2.0
1.5462	324.415870777	0.0
1.5565	325.489102625	0.0
1.5667	326.546983203	2.0
1.577	327.610278412	1.0
1.5872	328.658364481	1.0
1.5974	329.701611022	2.0
1.6077	330.750197292	2.0
1.6179	331.783784816	2.0
1.6282	332.822662629	3.0
1.6384	333.846680563	1.0
1.6486	334.865970105	2.0
1.6589	335.890476754	0.0
1.6691	336.900329087	0.0
1.6794	337.915350223	0.0
1.6896	338.915852722	2.0
1.6998	339.91173541	2.0
1.7101	340.9127154	3.0
1.7203	341.899377593	1.0
1.7306	342.891089895	2.0
1.7408	343.868616963	1.0
1.751	344.84163031	0.0
1.7613	345.819623904	1.0
1.7715	346.783628495	2.0
1.7818	347.752567224	1.0
1.792	348.707646467	1.0
1.8022	349.658315641	3.0
1.8125	350.613850698	1.0
1.8227	351.555717992	1.0
1.833	352.502406117	2.0
1.8432	353.435553025	3.0
1.8534	354.364391136	3.0
1.8637	355.29798339	4.0
1.8739	356.218221746	0.0
1.8842	357.143170229	4.0
1.8944	358.054888453	1.0
1.9046	358.962396827	2.0
1.9149	359.87455017	4.0
1.9251	360.773656273	2.0
1.9354	361.677364339	2.0
1.9456	362.568145966	3.0
1.9558	363.454814416	3.0
1.9661	364.346021169	4.0
1.9763	365.224480298	6.0
1.9866	366.107435711	3.0
1.9968	366.977761525	8.0
2.007	367.844068618	5.0
2.0173	368.714809796	2.0
2.0275	369.573096086	4.0
2.0378	370.435775407	4.0
2.048	371.286115154	4.0
2.0582	372.132528465	8.0
2.0685	372.983274038	8.0
2.0787	373.821850735	8.0
2.089	374.664719582	3.0
2.0992	375.49553222	7.0
2.1094	376.322508588	8.0
2.1197	377.153717733	3.0
2.1299	377.973037445	11.0
2.1402	378.796550744	11.0
2.1504	379.608284691	4.0
2.1606	380.416270465	9.0
2.1709	381.228391813	20.0
2.1811	382.028896757	11.0
2.1914	382.833498987	10.0
2.2016	383.626592364	12.0
2.2118	384.41602364	12.0
2.2221	385.209495522	13.0
2.2323	385.991617758	6.0
2.2426	386.77774319	12.0
2.2528	387.552624057	15.0
2.263	388.32392692	9.0
2.2733	389.0991776	14.0
2.2835	389.863339266	11.0
2.2938	390.631412199	11.0
2.304	391.388498787	12.0
2.3142	392.142089535	9.0
2.3245	392.899537443	17.0
2.3347	393.646150984	17.0
2.345	394.396585974	16.0
2.3552	395.136286908	14.0
2.3654	395.87257228	12.0
2.3757	396.612626237	18.0
2.3859	397.342094626	15.0
2.3962	398.075296709	17.0
2.4064	398.798011231	28.0
2.4166	399.517388626	13.0
2.4269	400.240448065	17.0
2.4371	400.953165022	17.0
2.4474	401.669529931	14.0
2.4576	402.375648116	15.0
2.4678	403.078505807	12.0
2.4781	403.784960988	17.0
2.4883	404.48131119	17.0
2.4986	405.181225574	12.0
2.5088	405.871128538	20.0
2.519	406.557845882	9.0
2.5293	407.248078103	13.0
2.5395	407.928437395	18.0
2.5498	408.612279022	18.0
2.56	409.286339129	19.0
2.5702	409.957286771	11.0
2.5805	410.631668574	12.0
2.5907	411.29640417	20.0
2.601	411.964542132	11.0
2.6112	412.623123197	14.0
2.6214	413.27866327	16.0
2.6317	413.937558643	14.0
2.6419	414.587029323	10.0
2.6522	415.239824238	8.0
2.6624	415.883281719	7.0
2.6726	416.523768041	13.0
2.6829	417.167532613	12.0
2.6931	417.802088919	9.0
2.7034	418.439893123	12.0
2.7136	419.068574316	17.0
2.7238	419.69435258	10.0
2.7341	420.323333813	10.0
2.7443	420.943318237	3.0
2.7546	421.566475975	9.0
2.7648	422.180720202	9.0
2.775	422.792128162	10.0
2.7853	423.406665538	7.0
2.7955	424.012412708	14.0
2.8058	424.621260319	8.0
2.816	425.221399109	12.0
2.8262	425.818766763	15.0
2.8365	426.41919197	8.0
2.8467	427.011028828	8.0
2.857	427.605894929	12.0
2.8672	428.192252197	3.0
2.8774	428.775901966	10.0
2.8877	429.362539074	9.0
2.8979	429.940785054	13.0
2.9082	430.521990715	12.0
2.9184	431.094882939	15.0
2.9286	431.665129838	3.0
2.9389	432.238295476	10.0
2.9491	432.803262679	16.0
2.9594	433.371121596	8.0
2.9696	433.930857985	10.0
2.9798	434.488009797	12.0
2.9901	435.048013321	13.0
3.0003	435.600006679	16.0
3.0106	436.154825346	10.0
3.0208	436.70170801	5.0
3.031	437.246065448	11.0
3.0413	437.793209112	8.0
3.0515	438.332526555	19.0
3.0618	438.874604426	11.0
3.072	439.408928536	10.0
3.0822	439.94078541	12.0
3.0925	440.475364527	12.0
3.1027	441.002297142	15.0
3.113	441.531926797	18.0
3.1232	442.053980746	17.0
3.1334	442.573624117	11.0
3.1437	443.095927217	22.0
3.1539	443.610759409	17.0
3.1642	444.128226706	16.0
3.1744	444.638292266	19.0
3.1846	445.146002602	18.0
3.1949	445.656311591	11.0
3.2051	446.159321233	22.0
3.2154	446.664905468	15.0
3.2256	447.163257937	17.0
3.2358	447.659309269	10.0
3.2461	448.157899578	14.0
3.2563	448.649358162	18.0
3.2666	449.143332215	18.0
3.2768	449.630240573	19.0
3.287	450.114900636	7.0
3.2973	450.602041371	13.0
3.3075	451.082214154	20.0
3.3178	451.564844641	13.0
3.328	452.040571688	15.0
3.3382	452.51410207	15.0
3.3485	452.990056159	17.0
3.3587	453.459202306	8.0
3.369	453.930749719	12.0
3.3792	454.395552222	9.0
3.3894	454.858208505	11.0
3.3997	455.323232836	13.0
3.4099	455.781605562	15.0
3.4202	456.242324411	12.0
3.4304	456.696453241	10.0
3.4406	457.148485135	12.0
3.4509	457.602830697	12.0
3.4611	458.050677402	12.0
3.4714	458.500816354	15.0
3.4816	458.944516619	13.0
3.4918	459.386168102	9.0
3.5021	459.830080123	19.0
3.5123	460.267642524	10.0
3.5226	460.707444535	13.0
3.5328	461.140955715	13.0
3.543	461.572465161	15.0
3.5533	462.006183235	11.0
3.5635	462.433697501	13.0
3.5738	462.863399947	13.0
3.584	463.286956023	15.0
3.5942	463.708556334	15.0
3.6045	464.132314553	12.0
3.6147	464.550011428	17.0
3.625	464.969846233	15.0
3.6352	465.383675814	13.0
3.6454	465.795594541	17.0
3.6557	466.209621623	13.0
3.6659	466.617726553	21.0
3.6762	467.027920317	14.0
3.6864	467.432246761	10.0
3.6966	467.834706231	14.0
3.7069	468.23922564	22.0
3.7171	468.637958893	11.0
3.7274	469.038733013	14.0
3.7376	469.433774548	10.0
3.7478	469.826991983	12.0
3.7581	470.222222052	10.0
3.7683	470.611798838	17.0
3.7786	471.003369624	11.0
3.7888	471.389339469	9.0
3.799	471.773527101	17.0
3.8093	472.159681151	12.0
3.8195	472.540311738	8.0
3.8298	472.922890535	9.0
3.84	473.29999701	17.0
3.8502	473.6753622	18.0
3.8605	474.05264865	12.0
3.8707	474.424538478	21.0
3.881	474.798331777	7.0
3.8912	475.166778421	7.0
3.9014	475.533523765	14.0
3.9117	475.90214625	14.0
3.9219	476.26549604	9.0
3.9322	476.630705591	23.0
3.9424	476.990691266	14.0
3.9526	477.34901471	14.0
3.9629	477.709172189	17.0
3.9731	478.064178054	12.0
3.9834	478.421000973	21.0
3.9936	478.772719976	10.0
4.0038	479.12281492	13.0
4.0141	479.474701781	6.0
4.0243	479.82155533	18.0
4.0346	480.170184207	14.0
4.0448	480.513826373	9.0
4.055	480.855881774	15.0
4.0653	481.199687944	19.0
4.0755	481.538576387	6.0
4.0858	481.879199387	9.0
4.096	482.214950192	12.0
4.1062	482.549150671	10.0
4.1165	482.885061713	9.0
4.1267	483.216167959	10.0
4.137	483.54896893	7.0
4.1472	483.87700959	5.0
4.1574	484.203535525	17.0
4.1677	484.531732743	8.0
4.1779	484.855235501	12.0
4.1882	485.180394067	16.0
4.1984	485.500901637	11.0
4.2086	485.819929266	10.0
4.2189	486.140589799	6.0
4.2291	486.456663674	9.0
4.2394	486.774355335	8.0
4.2496	487.087502804	10.0
4.2598	487.399204318	9.0
4.2701	487.712501237	9.0
4.2803	488.021316826	6.0
4.2906	488.33171305	8.0
4.3008	488.637669435	11.0
4.311	488.942213069	10.0
4.3213	489.248315472	7.0
4.3315	489.550039454	9.0
4.3418	489.853307773	11.0
4.352	490.152238209	15.0
4.3622	490.449788336	10.0
4.3725	490.748861437	5.0
4.3827	491.043656662	14.0
4.393	491.33996076	10.0
4.4032	491.63202659	10.0
4.4134	491.922743809	12.0
4.4237	492.214949027	10.0
4.4339	492.502974607	8.0
4.4442	492.79247441	14.0
4.4544	493.077833272	8.0
4.4646	493.361874493	5.0
4.4749	493.647369543	14.0
4.4851	493.928780934	9.0
4.4954	494.211632696	5.0
4.5056	494.490438608	8.0
4.5158	494.767957136	9.0
4.5261	495.046896109	13.0
4.5363	495.321845201	5.0
4.5466	495.598201585	6.0
4.5568	495.870605029	11.0
4.567	496.141750652	12.0
4.5773	496.4142841	14.0
4.5875	496.682919291	9.0
4.5978	496.952929457	12.0
4.608	497.219077458	13.0
4.6182	497.483996523	10.0
4.6285	497.750271543	12.0
4.6387	498.012737824	10.0
4.649	498.276547507	9.0
4.6592	498.536583714	12.0
4.6694	498.795419206	18.0
4.6797	499.055579516	8.0
4.6899	499.31201855	11.0
4.7002	499.569770136	10.0
4.7104	499.8238349	10.0
4.7206	500.076726522	7.0
4.7309	500.330912539	7.0
4.7411	500.581462735	12.0
4.7514	500.833295341	7.0
4.7616	501.081525789	11.0
4.7718	501.328610036	14.0
4.7821	501.576958953	11.0
4.7923	501.821755542	9.0
4.8026	502.067805091	11.0
4.8128	502.310335203	13.0
4.823	502.551745434	7.0
4.8333	502.794391293	8.0
4.8435	503.0335664	10.0
4.8538	503.273965695	9.0
4.864	503.510926371	7.0
4.8742	503.746792884	12.0
4.8845	503.98386665	11.0
4.8947	504.217549366	9.0
4.905	504.452428157	9.0
4.9152	504.683947295	11.0
4.9254	504.914397395	4.0
4.9357	505.146027025	7.0
4.9459	505.374343476	15.0
4.9562	505.603828537	10.0
4.9664	505.830031094	4.0
4.9766	506.055189163	10.0
4.9869	506.281499675	6.0
4.9971	506.504573092	9.0
5.0074	506.728788283	9.0
5.0176	506.949796349	6.0
5.0278	507.169783913	9.0
5.0381	507.390897456	5.0
5.0483	507.608848239	8.0
5.0586	507.827914577	8.0
5.0688	508.043847438	9.0
5.079	508.258783231	6.0
5.0893	508.474819146	5.0
5.0995	508.687764932	10.0
5.1098	508.901800654	7.0
5.12	509.112774856	8.0
5.1302	509.322774888	7.0
5.1405	509.533849778	13.0
5.1507	509.741905499	10.0
5.161	509.951026129	11.0
5.1712	510.157155542	5.0
5.1814	510.362333156	5.0
5.1917	510.568560945	2.0
5.2019	510.771838898	4.0
5.2122	510.976157304	5.0
5.2224	511.177553184	5.0
5.2326	511.378019121	9.0
5.2429	511.579511118	6.0
5.2531	511.778121018	7.0
5.2634	511.977747478	5.0
5.2736	512.174518526	1.0
5.2838	512.370380985	4.0
5.2941	512.567245942	4.0
5.3043	512.761294986	5.0
5.3146	512.956337246	7.0
5.3248	513.148589664	1.0
5.335	513.339954359	5.0
5.3453	513.53229853	5.0
5.3555	513.721891453	5.0
5.3658	513.912454784	6.0
5.376	514.100292339	5.0
5.3862	514.287262556	3.0
5.3965	514.475189757	2.0
5.4067	514.660428889	3.0
5.417	514.846616144	6.0
5.4272	515.030140218	7.0
5.4374	515.212816871	2.0
5.4477	515.396428532	5.0
5.4579	515.577413852	5.0
5.4682	515.759325524	2.0
5.4784	515.938635171	2.0
5.4886	516.117116857	4.0
5.4989	516.29651208	1.0
5.5091	516.473341274	3.0
5.5194	516.651075545	4.0
5.5296	516.826267545	3.0
5.5398	517.000650598	4.0
5.5501	517.175926208	3.0
5.5603	517.348694715	1.0
5.5706	517.522347516	2.0
5.5808	517.693516426	2.0
5.591	517.863894965	2.0
5.6013	518.035145566	1.0
5.6115	518.203946636	3.0
5.6218	518.373611693	3.0
5.632	518.540849899	1.0
5.6422	518.707315884	1.0
5.6525	518.874633904	1.0
5.6627	519.039558645	3.0
5.673	519.205327532	1.0
5.6832	519.368725298	0.0
5.6934	519.531368576	1.0
5.7037	519.694844324	0.0
5.7139	519.855981751	1.0
5.7242	520.017943939	0.0
5.7344	520.177589457	2.0
5.7446	520.336497812	1.0
5.7549	520.496219521	3.0
5.7651	520.653656605	2.0
5.7754	520.811899512	0.0
5.7856	520.967878947	2.0
5.7958	521.123138149	1.0
5.8061	521.279192025	0.0
5.8163	521.433013741	4.0
5.8266	521.587622775	1.0
5.8368	521.740020316	1.0
5.847	521.891714162	2.0
5.8573	522.044184434	1.0
5.8675	522.194473806	3.0
5.8778	522.345532414	1.0
5.888	522.494430314	3.0
5.8982	522.642640679	1.0
5.9085	522.791609641	0.0
5.9187	522.938447784	1.0
5.929	523.086037499	0.0
5.9392	523.231516124	0.0
5.9494	523.376323002	0.0
5.9597	523.521871057	0.0
5.9699	523.665337225	0.0
5.9802	523.809537706	1.0
5.9904	523.951675575	2.0
6.0006	524.093157125	0.0
6.0109	524.23536283	1.0
6.0211	524.375534456	0.0
6.0314	524.516423533	1.0
6.0416	524.655297364	1.0
6.0518	524.793529946	0.0
6.0621	524.932470055	1.0
6.0723	525.069422795	1.0
6.0826	525.207076511	0.0
6.0928	525.342761258	1.0
6.103	525.477819483	1.0
6.1133	525.613568986	1.0
6.1235	525.747376758	0.0
6.1338	525.881869409	1.0
6.144	526.014438307	1.0
6.1542	526.146395069	3.0
6.1645	526.279027235	0.0
6.1747	526.40976226	0.0
6.185	526.541166437	0.0
6.1952	526.670691037	1.0
6.2054	526.799617558	0.0
6.2157	526.929203974	1.0
6.2259	527.056936814	2.0
6.2362	527.185323439	0.0
6.2464	527.311873651	0.0
6.2566	527.437839517	0.0
6.2669	527.564450125	0.0
6.2771	527.689249722	4.0
6.2874	527.814688091	1.0
6.2976	527.938332217	0.0
6.3078	528.061405417	4.0
6.3181	528.185108553	0.0
6.3283	528.307042266	1.0
6.3386	528.429600081	1.0
6.3488	528.550404857	0.0
6.359	528.670651818	0.0
6.3693	528.791514248	0.0
6.3795	528.910647888	0.0
6.3898	529.0303913	0.0
6.4	529.148421928	0.0
6.4102	529.265907551	0.0
6.4205	529.383994509	1.0
6.4307	529.500392378	0.0
6.441	529.617386014	0.0
6.4512	529.7327062	0.0
6.4614	529.847493896	1.0
6.4717	529.962869118	0.0
6.4819	530.076594039	0.0
6.4922	530.190901046	1.0
6.5024	530.303573032	2.0
6.5126	530.415724755	1.0
6.5229	530.528450513	2.0
6.5331	530.639563867	0.0
6.5434	530.751245941	1.0
6.5536	530.86133054	0.0
6.5638	530.970906823	0.0
6.5741	531.08104396	0.0
6.5843	531.189605719	1.0
6.5946	531.298723138	1.0
6.6048	531.406279765	0.0
6.615	531.513339751	0.0
6.6253	531.62094771	1.0
6.6355	531.727016469	0.0
6.6458	531.833628127	0.0
6.656	531.938714836	0.0
6.6662	532.043316308	0.0
6.6765	532.14845317	1.0
6.6867	532.252086177	0.0
6.697	532.356249617	0.0
6.7072	532.458923126	0.0
6.7174	532.561122541	0.0
6.7277	532.663845051	0.0
6.7379	532.765098242	2.0
6.7482	532.866869684	0.0
6.7584	532.96718541	0.0
6.7686	533.067037929	1.0
6.7789	533.16740153	0.0
6.7891	533.266329553	1.0
6.7994	533.365763927	0.0
6.8096	533.463776014	1.0
6.8198	533.56133553	0.0
6.8301	533.659394393	1.0
6.8403	533.756050644	0.0
6.8506	533.853201617	2.0
6.8608	533.948962965	1.0
6.871	534.044282136	1.0
6.8813	534.140089185	0.0
6.8915	534.234525832	0.0
6.9018	534.329445842	1.0
6.912	534.423008136	0.0
6.9222	534.516138408	0.0
6.9325	534.609745355	1.0
6.9427	534.702013369	1.0
6.953	534.794753646	0.0
6.9632	534.886167386	0.0
6.9734	534.977159024	0.0
6.9837	535.068616391	0.0
6.9939	535.158765573	0.0
7.0042	535.249376172	1.0
7.0144	535.338690697	1.0
7.0246	535.427592813	1.0
7.0349	535.516949964	1.0
7.0451	535.605028969	2.0
7.0554	535.693558796	0.0
7.0656	535.780822312	0.0
7.0758	535.86768289	1.0
7.0861	535.954988052	1.0
7.0963	536.041044421	0.0
7.1066	536.127541259	0.0
7.1168	536.212800865	1.0
7.127	536.297666786	0.0
7.1373	536.382967082	0.0
7.1475	536.467047262	0.0
7.1578	536.551557796	1.0
7.168	536.63485951	0.0
7.1782	536.717776579	1.0
7.1885	536.801118048	1.0
7.1987	536.88326742	0.0
7.209	536.965837263	1.0
7.2192	537.047226046	0.0
7.2294	537.128239016	1.0
7.2397	537.209666641	1.0
7.2499	537.289929544	0.0
7.2602	537.370603262	1.0
7.2704	537.450123042	2.0
7.2806	537.529275639	0.0
7.2909	537.608833369	0.0
7.3011	537.687253123	1.0
7.3114	537.766074259	2.0
7.3216	537.843767955	0.0
7.3318	537.921102901	2.0
7.3421	537.998833676	1.0
7.3523	538.075452607	0.0
7.3626	538.152463703	0.0
7.3728	538.228373249	1.0
7.383	538.303932284	1.0
7.3933	538.379878058	0.0
7.4035	538.45473752	0.0
7.4138	538.529980142	1.0
7.424	538.604146509	0.0
7.4342	538.677970414	0.0
7.4445	538.752172178	2.0
7.4547	538.825312576	1.0
7.465	538.898827334	0.0
7.4752	538.971290553	2.0
7.4854	539.043419174	0.0
7.4957	539.115916977	0.0
7.5059	539.187377787	0.0
7.5162	539.25920436	1.0
7.5264	539.330003542	0.0
7.5366	539.400475809	0.0
7.5469	539.47130878	0.0
7.5571	539.541128571	0.0
7.5674	539.611305727	0.0
7.5776	539.680479084	0.0
7.5878	539.749333034	2.0
7.5981	539.818539404	1.0
7.6083	539.886755862	1.0
7.6186	539.955321477	0.0
7.6288	540.022906344	0.0
7.639	540.090179139	1.0
7.6493	540.157796262	0.0
7.6595	540.224446204	0.0
7.6698	540.291437286	1.0
7.68	540.357470142	1.0
7.6902	540.423198092	1.0
7.7005	540.489262463	3.0
7.7107	540.554381863	2.0
7.721	540.619834569	0.0
7.7312	540.684351054	0.0
7.7414	540.748569634	0.0
7.7517	540.81311691	3.0
7.7619	540.876740915	1.0
7.7722	540.940690572	1.0
7.7824	541.003725508	1.0
7.7926	541.06646938	1.0
7.8029	541.129534398	0.0
7.8131	541.191697349	0.0
7.8234	541.254178473	2.0
7.8336	541.315765881	0.0
7.8438	541.37706891	0.0
7.8541	541.43868571	1.0
7.8643	541.499421158	1.0
7.8746	541.560467472	1.0
7.8848	541.620640594	1.0
7.895	541.680535866	1.0
7.9053	541.740737706	0.0
7.9155	541.800078431	1.0
7.9258	541.859722884	0.0
7.936	541.918514197	0.0
7.9462	541.977034041	0.0
7.9565	542.035853412	1.0
7.9667	542.093831443	1.0
7.977	542.152106228	1.0
7.9872	542.209547463	0.0
7.9974	542.266723464	0.0
8.0077	542.324192113	0.0
8.0179	542.380838743	0.0
8.0282	542.437775312	3.0
8.0384	542.493897473	0.0
8.0486	542.54976049	0.0
8.0589	542.605909435	1.0
8.0691	542.661255238	0.0
8.0794	542.716884322	0.0
8.0896	542.7717177	1.0
8.0998	542.826297885	0.0
8.1101	542.881157432	0.0
