TL-DOS Lehrstuhlversuch
detector=R1408306
job_number=2015-11-03-015
irradiation_dose [mSv]=0.09

[BEGIN DATA]
time [sec] 	 temperature [K] 	 photoncount 
0.0	178.990968286	0.0
0.0102	180.141236373	0.0
0.0205	181.299305443	1.0
0.0307	182.442699003	1.0
0.041	183.593846924	0.0
0.0512	184.730407043	0.0
0.0614	185.863582338	1.0
0.0717	187.004442695	0.0
0.0819	188.130845618	0.0
0.0922	189.264887672	2.0
0.1024	190.384558697	1.0
0.1126	191.500895196	0.0
0.1229	192.624802559	0.0
0.1331	193.734467322	2.0
0.1434	194.851657701	1.0
0.1536	195.954690601	0.0
0.1638	197.054438526	0.0
0.1741	198.161644812	1.0
0.1843	199.254820142	1.0
0.1946	200.355409258	0.0
0.2048	201.442051273	1.0
0.215	202.525457127	3.0
0.2253	203.616210513	0.0
0.2355	204.693141439	1.0
0.2458	205.777375985	1.0
0.256	206.847870681	0.0
0.2662	207.915177305	1.0
0.2765	208.989722277	1.0
0.2867	210.050650189	1.0
0.297	211.11877319	1.0
0.3072	212.173360514	0.0
0.3174	213.224807139	0.0
0.3277	214.283384552	0.0
0.3379	215.328547253	0.0
0.3482	216.380798124	0.0
0.3584	217.419714456	0.0
0.3686	218.45553676	0.0
0.3789	219.498383889	0.0
0.3891	220.528015646	0.0
0.3994	221.564630245	0.0
0.4096	222.588108453	0.0
0.4198	223.60853861	0.0
0.4301	224.635889205	0.0
0.4403	225.650220806	0.0
0.4506	226.671431485	0.0
0.4608	227.679700977	0.0
0.471	228.684967713	0.0
0.4813	229.697052049	0.0
0.4915	230.696310851	0.0
0.5018	231.70234651	0.0
0.512	232.695633286	0.0
0.5222	233.685961925	0.0
0.5325	234.683006857	0.0
0.5427	235.66741684	0.0
0.553	236.658502977	0.0
0.5632	237.637029677	0.0
0.5734	238.612642198	0.0
0.5837	239.594871208	0.0
0.5939	240.564653023	0.0
0.6042	241.541011785	0.0
0.6144	242.504997741	0.0
0.6246	243.466112823	0.0
0.6349	244.433746074	0.0
0.6451	245.389117093	0.0
0.6554	246.350967326	0.0
0.6656	247.300628612	0.0
0.6758	248.247461684	0.0
0.6861	249.200716066	0.0
0.6963	250.141890431	0.0
0.7066	251.08944773	0.0
0.7168	252.024997208	0.0
0.727	252.957760498	0.0
0.7373	253.896849679	1.0
0.7475	254.82403835	0.0
0.7578	255.757515106	0.0
0.768	256.679162474	0.0
0.7782	257.598065058	0.0
0.7885	258.52319953	0.0
0.7987	259.436610332	0.0
0.809	260.356215779	0.0
0.8192	261.264167621	0.0
0.8294	262.169415465	0.0
0.8397	263.080802593	0.0
0.8499	263.980640263	1.0
0.8602	264.886580526	0.0
0.8704	265.781040356	0.0
0.8806	266.672836368	0.0
0.8909	267.570680435	0.0
0.9011	268.457146668	0.0
0.9114	269.349624809	0.0
0.9216	270.230793115	0.0
0.9318	271.109337187	0.0
0.9421	271.993839441	1.0
0.9523	272.867132933	0.0
0.9626	273.746348999	0.0
0.9728	274.61442329	0.0
0.983	275.479912344	0.0
0.9933	276.351271042	0.0
1.0035	277.211587538	0.0
1.0138	278.0777386	0.0
1.024	278.932913452	1.0
1.0342	279.785541482	0.0
1.0445	280.643951936	0.0
1.0547	281.491484272	0.0
1.065	282.344764473	0.0
1.0752	283.18723157	0.0
1.0854	284.02718969	0.0
1.0957	284.872844308	0.0
1.1059	285.707782455	0.0
1.1162	286.548383054	0.0
1.1264	287.37833123	1.0
1.1366	288.205807713	0.0
1.1469	289.038896044	0.0
1.1571	289.861427149	0.0
1.1674	290.689536564	0.0
1.1776	291.507151848	0.0
1.1878	292.322332169	0.0
1.1981	293.143040946	0.0
1.2083	293.953349376	0.0
1.2186	294.769153223	1.0
1.2288	295.574618881	1.0
1.239	296.377685757	0.0
1.2493	297.186198939	0.0
1.2595	297.984466321	0.0
1.2698	298.788147459	0.0
1.28	299.581644031	0.0
1.2902	300.372777468	0.0
1.3005	301.169276279	0.0
1.3107	301.955681541	0.0
1.321	302.747420111	1.0
1.3312	303.529125456	1.0
1.3414	304.308502782	0.0
1.3517	305.093165753	1.0
1.3619	305.867885164	0.0
1.3722	306.647858631	0.0
1.3824	307.417947966	0.0
1.3926	308.185743874	0.0
1.4029	308.958746884	0.0
1.4131	309.721954094	0.0
1.4234	310.490337286	0.0
1.4336	311.248983221	0.0
1.4438	312.005369811	0.0
1.4541	312.766886125	0.0
1.4643	313.518752203	0.0
1.4746	314.275717348	0.0
1.4848	315.023089931	0.0
1.495	315.768236742	0.0
1.5053	316.518437051	0.0
1.5155	317.259130525	0.0
1.5258	318.004847294	0.0
1.536	318.741114045	0.0
1.5462	319.475188099	1.0
1.5565	320.214240556	0.0
1.5667	320.943927448	0.0
1.577	321.678562991	0.0
1.5872	322.403888941	0.0
1.5974	323.127054777	0.0
1.6077	323.855125038	1.0
1.6179	324.573968904	0.0
1.6282	325.297687885	0.0
1.6384	326.012235612	0.0
1.6486	326.724655324	0.0
1.6589	327.441906583	0.0
1.6691	328.150068549	0.0
1.6794	328.863033187	0.0
1.6896	329.566962854	1.0
1.6998	330.268796128	0.0
1.7101	330.975389152	0.0
1.7203	331.67302795	0.0
1.7306	332.375398052	2.0
1.7408	333.068867442	0.0
1.751	333.76027159	0.0
1.7613	334.45636476	0.0
1.7715	335.143636761	0.0
1.7818	335.835569761	0.0
1.792	336.518734311	0.0
1.8022	337.199864309	0.0
1.8125	337.885613651	0.0
1.8227	338.562672905	1.0
1.833	339.244323895	0.0
1.8432	339.917336734	0.0
1.8534	340.588345254	0.0
1.8637	341.263904475	0.0
1.8739	341.930902741	0.0
1.8842	342.602424512	0.0
1.8944	343.265436492	0.0
1.9046	343.926473937	1.0
1.9149	344.59199446	0.0
1.9251	345.249081244	1.0
1.9354	345.910624313	1.0
1.9456	346.563784046	1.0
1.9558	347.214998585	0.0
1.9661	347.870629584	0.0
1.9763	348.517952167	0.0
1.9866	349.169664817	0.0
1.9968	349.813118705	0.0
2.007	350.454656304	1.0
2.0173	351.100544736	0.0
2.0275	351.738248214	0.0
2.0378	352.380276522	0.0
2.048	353.014168793	2.0
2.0582	353.646173251	1.0
2.0685	354.282463888	2.0
2.0787	354.910691199	0.0
2.089	355.543179073	1.0
2.0992	356.16765181	2.0
2.1094	356.790264787	1.0
2.1197	357.417100252	2.0
2.1299	358.035992209	3.0
2.1402	358.659081419	2.0
2.1504	359.274274596	3.0
2.1606	359.887635648	0.0
2.1709	360.505156442	0.0
2.1811	361.114851768	5.0
2.1914	361.728681976	0.0
2.2016	362.334733485	0.0
2.2118	362.938980094	4.0
2.2221	363.547324632	1.0
2.2323	364.147959988	0.0
2.2426	364.752668781	0.0
2.2528	365.349714466	4.0
2.263	365.944982071	0.0
2.2733	366.54428671	3.0
2.2835	367.135996724	4.0
2.2938	367.731719646	5.0
2.304	368.319893331	1.0
2.3142	368.906315359	1.0
2.3245	369.496714432	7.0
2.3347	370.079631734	6.0
2.345	370.666502312	2.0
2.3552	371.245935835	1.0
2.3654	371.823643729	3.0
2.3757	372.40526957	1.0
2.3859	372.979524818	5.0
2.3962	373.557674597	3.0
2.4064	374.128497834	1.0
2.4166	374.697621085	4.0
2.4269	375.270604063	5.0
2.4371	375.836325974	7.0
2.4474	376.405884544	3.0
2.4576	376.968225443	4.0
2.4678	377.528891617	5.0
2.4781	378.093360164	4.0
2.4883	378.650675542	5.0
2.4986	379.211770566	6.0
2.5088	379.765755173	5.0
2.519	380.318089942	2.0
2.5293	380.87417058	9.0
2.5395	381.423204344	3.0
2.5498	381.97596159	3.0
2.56	382.521714078	9.0
2.5702	383.065841244	5.0
2.5805	383.613658617	5.0
2.5907	384.15453383	9.0
2.601	384.699077196	6.0
2.6112	385.236719893	6.0
2.6214	385.77276142	8.0
2.6317	386.312438318	10.0
2.6419	386.845276216	11.0
2.6522	387.381727759	7.0
2.6624	387.911381175	10.0
2.6726	388.439457214	8.0
2.6829	388.971114603	11.0
2.6931	389.496034619	9.0
2.7034	390.024514581	9.0
2.7136	390.546297435	6.0
2.7238	391.066526353	8.0
2.7341	391.590283402	12.0
2.7443	392.107403194	11.0
2.7546	392.628030032	10.0
2.7648	393.14205928	12.0
2.775	393.654557683	7.0
2.7853	394.170531789	16.0
2.7955	394.679967267	15.0
2.8058	395.192857677	14.0
2.816	395.699248537	15.0
2.8262	396.204131298	12.0
2.8365	396.712438116	8.0
2.8467	397.214303468	6.0
2.857	397.719572411	14.0
2.8672	398.218438387	14.0
2.8774	398.715818675	12.0
2.8877	399.216572138	12.0
2.8979	399.710979855	14.0
2.9082	400.208740586	15.0
2.9184	400.700193497	15.0
2.9286	401.190182797	4.0
2.9389	401.683495146	13.0
2.9491	402.170556047	13.0
2.9594	402.660920137	14.0
2.9696	403.145070139	15.0
2.9798	403.62777828	24.0
2.9901	404.11376009	13.0
3.0003	404.593583347	14.0
3.0106	405.076660708	5.0
3.0208	405.553616322	16.0
3.031	406.0291515	14.0
3.0413	406.507911702	18.0
3.0515	406.980604865	13.0
3.0618	407.456503778	15.0
3.072	407.926371911	9.0
3.0822	408.394840716	10.0
3.0925	408.866486621	10.0
3.1027	409.332155642	14.0
3.113	409.800982776	9.0
3.1232	410.263868747	8.0
3.1334	410.725376183	9.0
3.1437	411.190013509	11.0
3.1539	411.648762766	14.0
3.1642	412.110623207	11.0
3.1744	412.56663077	9.0
3.1846	413.021280283	10.0
3.1949	413.479013175	12.0
3.2051	413.930945495	8.0
3.2154	414.385942767	12.0
3.2256	414.835174133	11.0
3.2358	415.28306763	7.0
3.2461	415.733998688	5.0
3.2563	416.179215369	9.0
3.2666	416.627451458	9.0
3.2768	417.070007321	7.0
3.287	417.511245195	11.0
3.2973	417.955475493	12.0
3.3075	418.394076328	4.0
3.3178	418.835651703	9.0
3.328	419.271631259	1.0
3.3382	419.706312412	7.0
3.3485	420.143941522	6.0
3.3587	420.576024822	11.0
3.369	421.01103846	5.0
3.3792	421.440539434	7.0
3.3894	421.868761297	6.0
3.3997	422.299887311	8.0
3.4099	422.725549925	4.0
3.4202	423.154099334	4.0
3.4304	423.577217994	6.0
3.4406	423.999076552	14.0
3.4509	424.423796105	9.0
3.4611	424.843133444	4.0
3.4714	425.26531468	5.0
3.4816	425.682145867	6.0
3.4918	426.097735678	12.0
3.5021	426.516143969	7.0
3.5123	426.929250025	9.0
3.5226	427.345157718	10.0
3.5328	427.755794863	10.0
3.543	428.165209078	8.0
3.5533	428.577399893	8.0
3.5635	428.984367261	11.0
3.5738	429.394094635	9.0
3.584	429.798629781	9.0
3.5942	430.201960169	7.0
3.6045	430.608025897	9.0
3.6147	431.008945798	12.0
3.625	431.412584692	15.0
3.6352	431.811108513	9.0
3.6454	432.208445479	10.0
3.6557	432.608477137	10.0
3.6659	433.003439436	10.0
3.6762	433.401080322	6.0
3.6864	433.793682146	8.0
3.6966	434.185114751	9.0
3.7069	434.579202005	14.0
3.7171	434.96829523	13.0
3.7274	435.36002724	13.0
3.7376	435.746795066	11.0
3.7478	436.132411047	18.0
3.7581	436.520642231	16.0
3.7683	436.903953595	9.0
3.7786	437.289864532	18.0
3.7888	437.670885053	6.0
3.799	438.050770846	9.0
3.8093	438.433232979	9.0
3.8195	438.8108484	22.0
3.8298	439.191024765	10.0
3.84	439.566383384	13.0
3.8502	439.940624137	15.0
3.8605	440.317402947	10.0
3.8707	440.689407066	12.0
3.881	441.063934073	15.0
3.8912	441.433714926	7.0
3.9014	441.802394524	13.0
3.9117	442.173574463	11.0
3.9219	442.540050663	15.0
3.9322	442.909012262	14.0
3.9424	443.273298233	17.0
3.9526	443.636499313	16.0
3.9629	444.00216358	13.0
3.9731	444.363194005	13.0
3.9834	444.726672896	11.0
3.9936	445.085545638	19.0
4.0038	445.443349611	20.0
4.0141	445.803580168	15.0
4.0243	446.159245741	21.0
4.0346	446.517323396	16.0
4.0448	446.87086335	11.0
4.055	447.223350415	17.0
4.0653	447.578228006	12.0
4.0755	447.928608448	18.0
4.0858	448.281365129	14.0
4.096	448.629651537	5.0
4.1062	448.976900704	11.0
4.1165	449.326504873	12.0
4.1267	449.67167872	17.0
4.137	450.019193495	15.0
4.1472	450.362304426	11.0
4.1574	450.704393528	13.0
4.1677	451.048802637	10.0
4.1779	451.388847258	15.0
4.1882	451.731198022	13.0
4.1984	452.069210381	12.0
4.2086	452.406216096	14.0
4.2189	452.745507344	12.0
4.2291	453.080498959	4.0
4.2394	453.417762447	14.0
4.2496	453.750751999	9.0
4.2598	454.082749865	7.0
4.2701	454.416999302	5.0
4.2803	454.747012997	9.0
4.2906	455.079264806	18.0
4.3008	455.407306189	9.0
4.311	455.734370622	9.0
4.3213	456.063653168	8.0
4.3315	456.388762914	9.0
4.3418	456.716077517	11.0
4.352	457.03924426	8.0
4.3622	457.36144857	10.0
4.3725	457.685838032	15.0
4.3827	458.006116702	18.0
4.393	458.328567464	10.0
4.4032	458.646932003	14.0
4.4134	458.964348411	8.0
4.4237	459.283917499	15.0
4.4339	459.599436882	11.0
4.4442	459.917096079	7.0
4.4544	460.230729774	15.0
4.4646	460.543429427	7.0
4.4749	460.858249772	12.0
4.4851	461.169080589	13.0
4.4954	461.482019424	13.0
4.5056	461.790992575	8.0
4.5158	462.099045563	8.0
4.5261	462.40918773	8.0
4.5363	462.715399653	14.0
4.5466	463.023688269	13.0
4.5568	463.32807013	10.0
4.567	463.631545502	10.0
4.5773	463.937079009	17.0
4.5875	464.238740674	5.0
4.5978	464.542448172	7.0
4.608	464.84230697	10.0
4.6182	465.141272748	20.0
4.6285	465.442266078	8.0
4.6387	465.739445101	5.0
4.649	466.038639557	8.0
4.6592	466.334042502	11.0
4.6694	466.628565699	13.0
4.6797	466.925086318	13.0
4.6899	467.21784931	11.0
4.7002	467.512597786	7.0
4.7104	467.803611093	10.0
4.7206	468.093757725	13.0
4.7309	468.385872097	13.0
4.7411	468.674284679	12.0
4.7514	468.964653243	14.0
4.7616	469.25134214	9.0
4.7718	469.537177241	13.0
4.7821	469.824950842	8.0
4.7923	470.109077662	10.0
4.8026	470.395131397	11.0
4.8128	470.677560145	10.0
4.823	470.959147784	18.0
4.8333	471.242645118	9.0
4.8435	471.52254986	13.0
4.8538	471.804352884	9.0
4.864	472.082584789	14.0
4.8742	472.359988082	13.0
4.8845	472.639272692	10.0
4.8947	472.915018097	10.0
4.905	473.192633575	5.0
4.9152	473.466731	7.0
4.9254	473.740012127	17.0
4.9357	474.015146614	9.0
4.9459	474.286794489	12.0
4.9562	474.560284647	9.0
4.9664	474.83030903	3.0
4.9766	475.099529245	10.0
4.9869	475.370575279	12.0
4.9971	475.638186512	12.0
5.0074	475.907612652	7.0
5.0176	476.173624517	10.0
5.0278	476.438844165	8.0
5.0381	476.705862501	7.0
5.0483	476.969497074	12.0
5.0586	477.234919587	9.0
5.0688	477.49697856	14.0
5.079	477.758257088	13.0
5.0893	478.021307576	9.0
5.0995	478.281024584	7.0
5.1098	478.542502962	9.0
5.12	478.800667783	13.0
5.1302	479.058063756	10.0
5.1405	479.317205357	7.0
5.1507	479.573063014	14.0
5.161	479.830655867	7.0
5.1712	480.084984402	10.0
5.1814	480.338555513	8.0
5.1917	480.593846314	10.0
5.2019	480.845901968	10.0
5.2122	481.099667034	9.0
5.2224	481.350216289	5.0
5.2326	481.600019376	8.0
5.2429	481.851516598	8.0
5.2531	482.099826748	9.0
5.2634	482.349820907	4.0
5.2736	482.596647042	6.0
5.2838	482.842738097	8.0
5.2941	483.090498112	13.0
5.3043	483.335118414	8.0
5.3146	483.581397702	11.0
5.3248	483.824556042	8.0
5.335	484.066990224	18.0
5.3453	484.311068567	10.0
5.3555	484.552053852	4.0
5.3658	484.794673471	5.0
5.376	485.034218519	9.0
5.3862	485.27305017	11.0
5.3965	485.513501549	14.0
5.4067	485.750905833	13.0
5.417	485.989920165	11.0
5.4272	486.225905613	5.0
5.4374	486.461188265	9.0
5.4477	486.698066577	8.0
5.4579	486.931943073	15.0
5.4682	487.167405692	10.0
5.4784	487.399884435	9.0
5.4886	487.631670827	11.0
5.4989	487.865029166	12.0
5.5091	488.095430296	10.0
5.5194	488.32739398	8.0
5.5296	488.556418128	7.0
5.5398	488.784760212	5.0
5.5501	489.014650886	6.0
5.5603	489.241628294	7.0
5.5706	489.470145036	8.0
5.5808	489.695765923	15.0
5.591	489.920714882	7.0
5.6013	490.147189419	9.0
5.6115	490.37079398	8.0
5.6218	490.595915002	6.0
5.632	490.8181832	11.0
5.6422	491.039789455	9.0
5.6525	491.262898618	9.0
5.6627	491.483180453	7.0
5.673	491.704956213	9.0
5.6832	491.923921544	12.0
5.6934	492.142234767	8.0
5.7037	492.362028564	18.0
5.7139	492.579037048	6.0
5.7242	492.797517258	9.0
5.7344	493.0132288	15.0
5.7446	493.228297925	15.0
5.7549	493.444825623	7.0
5.7651	493.658609397	11.0
5.7754	493.873843027	9.0
5.7856	494.086349131	6.0
5.7958	494.298222365	6.0
5.8061	494.511532498	10.0
5.8163	494.722139481	10.0
5.8266	494.934174775	7.0
5.8368	495.143523074	8.0
5.847	495.352247907	8.0
5.8573	495.562388287	16.0
5.8675	495.769865685	8.0
5.8778	495.97875017	6.0
5.888	496.184987588	12.0
5.8982	496.390610805	8.0
5.9085	496.597628534	14.0
5.9187	496.802022852	9.0
5.929	497.007803349	8.0
5.9392	497.210976113	11.0
5.9494	497.413543803	5.0
5.9597	497.617485283	12.0
5.9699	497.818842336	12.0
5.9802	498.021564969	7.0
5.9904	498.22171862	11.0
6.0006	498.421276188	12.0
6.0109	498.622187131	13.0
6.0211	498.820552052	13.0
6.0314	499.02026226	9.0
6.0416	499.217441662	9.0
6.0518	499.414033837	15.0
6.0621	499.611959278	7.0
6.0723	499.807376529	8.0
6.0826	500.004119077	6.0
6.0928	500.198368425	8.0
6.103	500.392039274	10.0
6.1133	500.587023575	7.0
6.1235	500.779536958	12.0
6.1338	500.973355945	9.0
6.144	501.16471878	10.0
6.1542	501.355511712	9.0
6.1645	501.547598579	8.0
6.1747	501.737251246	14.0
6.185	501.928190115	12.0
6.1952	502.11670933	7.0
6.2054	502.304667111	8.0
6.2157	502.4938996	12.0
6.2259	502.680734059	9.0
6.2362	502.868835608	7.0
6.2464	503.054553459	8.0
6.2566	503.239718219	12.0
6.2669	503.426138744	9.0
6.2771	503.610196875	11.0
6.2874	503.795503266	5.0
6.2976	503.978461381	10.0
6.3078	504.160874623	7.0
6.3181	504.344524971	13.0
6.3283	504.525848028	3.0
6.3386	504.708400797	3.0
6.3488	504.888640185	6.0
6.359	505.068342797	4.0
6.3693	505.249264131	9.0
6.3795	505.427892758	7.0
6.3898	505.607732823	7.0
6.4	505.785293884	5.0
6.4102	505.962326145	10.0
6.4205	506.140559018	5.0
6.4307	506.316533254	5.0
6.441	506.493700926	9.0
6.4512	506.668623459	9.0
6.4614	506.84302505	8.0
6.4717	507.018609412	8.0
6.4819	507.1919687	7.0
6.4922	507.36650369	8.0
6.5024	507.538826903	7.0
6.5126	507.710636916	7.0
6.5229	507.883612124	6.0
6.5331	508.054395321	12.0
6.5434	508.22633675	8.0
6.5536	508.396099269	7.0
6.5638	508.565356214	8.0
6.5741	508.735761039	5.0
6.5843	508.904006427	7.0
6.5946	509.073392835	9.0
6.6048	509.240632711	9.0
6.615	509.407374526	8.0
6.6253	509.575247164	2.0
6.6355	509.740992453	7.0
6.6458	509.907861807	3.0
6.656	510.072616527	3.0
6.6662	510.236880586	2.0
6.6765	510.402258664	4.0
6.6867	510.565541006	4.0
6.697	510.72993071	2.0
6.7072	510.892237202	3.0
6.7174	511.054060324	7.0
6.7277	511.216980912	3.0
6.7379	511.377836906	3.0
6.7482	511.539783806	9.0
6.7584	511.69967845	2.0
6.7686	511.859096908	5.0
6.7789	512.019596523	8.0
6.7891	512.178062224	3.0
6.7994	512.33760262	6.0
6.8096	512.495121257	5.0
6.8198	512.652170783	6.0
6.8301	512.8102854	5.0
6.8403	512.966396327	4.0
6.8506	513.123565979	4.0
6.8608	513.278743915	1.0
6.871	513.433459712	5.0
6.8813	513.589224772	3.0
6.8915	513.743015916	4.0
6.9018	513.897850054	4.0
6.912	514.050722072	1.0
6.9222	514.203138817	4.0
6.9325	514.356589235	3.0
6.9427	514.508095068	3.0
6.953	514.660628397	6.0
6.9632	514.811228762	3.0
6.9734	514.96138062	2.0
6.9837	515.11255079	2.0
6.9939	515.261805272	3.0
7.0042	515.41207198	3.0
7.0144	515.560434449	1.0
7.0246	515.708355076	4.0
7.0349	515.857278882	2.0
7.0451	516.004315468	2.0
7.0554	516.152349238	2.0
7.0656	516.298507065	5.0
7.0758	516.444229616	2.0
7.0861	516.590940439	1.0
7.0963	516.735792085	1.0
7.1066	516.881626098	5.0
7.1168	517.025612045	1.0
7.127	517.169169183	1.0
7.1373	517.313699908	2.0
7.1475	517.456399083	1.0
7.1578	517.600066027	3.0
7.168	517.741912366	3.0
7.1782	517.883336269	2.0
7.1885	518.025719291	2.0
7.1987	518.16629798	4.0
7.209	518.307830057	6.0
7.2192	518.447568584	2.0
7.2294	518.586890951	3.0
7.2397	518.727158186	2.0
7.2499	518.865647899	0.0
7.2602	519.005076832	2.0
7.2704	519.142738868	0.0
7.2806	519.279990928	0.0
7.2909	519.418173815	0.0
7.3011	519.554605594	3.0
7.3114	519.691962637	1.0
7.3216	519.827579037	3.0
7.3318	519.962791554	4.0
7.3421	520.098921067	4.0
7.3523	520.233325492	0.0
7.3626	520.368641433	0.0
7.3728	520.502242596	3.0
7.383	520.635445878	0.0
7.3933	520.769552528	1.0
7.4035	520.901959726	2.0
7.4138	521.035264895	2.0
7.424	521.166880767	2.0
7.4342	521.29810467	3.0
7.4445	521.430218518	1.0
7.4547	521.560658167	1.0
7.465	521.691982443	0.0
7.4752	521.821642525	1.0
7.4854	521.950916463	0.0
7.4957	522.081067122	1.0
7.5059	522.209568459	2.0
7.5162	522.338941278	1.0
7.5264	522.466674633	2.0
7.5366	522.594027582	0.0
7.5469	522.722244223	2.0
7.5571	522.848836053	1.0
7.5674	522.976286413	2.0
7.5776	523.102121672	0.0
7.5878	523.227582177	0.0
7.5981	523.35389354	0.0
7.6083	523.478604236	1.0
7.6186	523.604160705	2.0
7.6288	523.728126073	2.0
7.639	523.851722256	0.0
7.6493	523.976156653	0.0
7.6595	524.099014169	0.0
7.6698	524.22270489	2.0
7.68	524.344828153	1.0
7.6902	524.466587717	0.0
7.7005	524.589173041	1.0
7.7107	524.710204914	1.0
7.721	524.832057612	0.0
7.7312	524.952366143	1.0
7.7414	525.072316381	0.0
7.7517	525.193080107	0.0
7.7619	525.312313467	1.0
7.7722	525.432355453	0.0
7.7824	525.55087622	0.0
7.7926	525.669044017	1.0
7.8029	525.788013214	2.0
7.8131	525.905474787	0.0
7.8234	526.023732969	0.0
7.8336	526.140492538	2.0
7.8438	526.256904381	2.0
7.8541	526.374105715	1.0
7.8643	526.489821828	2.0
7.8746	526.606322714	0.0
7.8848	526.721347254	0.0
7.895	526.836029237	0.0
7.9053	526.951488979	0.0
7.9155	527.06548557	0.0
7.9258	527.180255272	0.0
7.936	527.293570567	1.0
7.9462	527.406548395	1.0
7.9565	527.520292424	1.0
7.9667	527.632595045	2.0
7.977	527.745659288	0.0
7.9872	527.857290737	2.0
7.9974	527.968589733	1.0
8.0077	528.080643545	1.0
8.0179	528.191277367	0.0
8.0282	528.302661495	0.0
8.0384	528.412634119	0.0
8.0486	528.52227923	1.0
8.0589	528.632667942	1.0
8.0691	528.741657764	1.0
8.0794	528.851386742	0.0
8.0896	528.959725191	0.0
8.0998	529.067740994	0.0
8.1101	529.176489348	1.0
