TL-DOS Lehrstuhlversuch
detector=R1406805
job_number=2015-10-20-014
irradiation_dose [mSv]=2.0

[BEGIN DATA]
time [sec] 	 temperature [K] 	 photoncount 
0.0	89.5234261196	0.0
0.0102	91.7041706902	0.0
0.0205	93.8957197315	1.0
0.0307	96.0555691053	1.0
0.041	98.2261194248	1.0
0.0512	100.365273813	2.0
0.0614	102.494205179	3.0
0.0717	104.633684309	4.0
0.0819	106.742216936	0.0
0.0922	108.861196261	3.0
0.1024	110.949525603	1.0
0.1126	113.027874816	0.0
0.1229	115.116521184	0.0
0.1331	117.174956321	2.0
0.1434	119.243589947	3.0
0.1536	121.282301816	0.0
0.1638	123.311270679	1.0
0.1741	125.350292042	1.0
0.1843	127.359819974	1.0
0.1946	129.379304086	1.0
0.2048	131.369577365	0.0
0.215	133.350339124	0.0
0.2253	135.340914543	1.0
0.2355	137.302697277	1.0
0.2458	139.274199638	0.0
0.256	141.217185198	0.0
0.2662	143.150885228	0.0
0.2765	145.094165749	0.0
0.2867	147.009337683	0.0
0.297	148.933998312	0.0
0.3072	150.830819681	0.0
0.3174	152.718576139	0.0
0.3277	154.615685462	0.0
0.3379	156.485354041	0.0
0.3482	158.364285869	0.0
0.3584	160.216039882	0.0
0.3686	162.05894436	0.0
0.3789	163.910979485	0.0
0.3891	165.736225842	0.0
0.3994	167.570515359	0.0
0.4096	169.378272789	0.0
0.4198	171.177390945	0.0
0.4301	172.985422808	0.0
0.4403	174.767302389	0.0
0.4506	176.558010269	0.0
0.4608	178.322816449	0.0
0.471	180.079188619	0.0
0.4813	181.844262712	0.0
0.4915	183.583805886	0.0
0.5018	185.331967603	0.0
0.512	187.054843031	1.0
0.5222	188.769484834	0.0
0.5325	190.492621808	0.0
0.5427	192.190834462	0.0
0.553	193.897460889	1.0
0.5632	195.579401813	0.0
0.5734	197.253304739	0.0
0.5837	198.935500996	0.0
0.5939	200.593365119	0.0
0.6042	202.259443109	0.0
0.6144	203.901422109	0.0
0.6246	205.53555409	0.0
0.6349	207.177782356	0.0
0.6451	208.796256606	0.0
0.6554	210.422749566	0.0
0.6656	212.025716114	0.0
0.6758	213.621022083	0.0
0.6861	215.224231975	0.0
0.6963	216.804252232	0.0
0.7066	218.392100679	0.0
0.7168	219.956981688	0.0
0.727	221.514384129	0.0
0.7373	223.079502699	0.0
0.7475	224.621982608	0.0
0.7578	226.172104713	0.0
0.768	227.699805072	0.0
0.7782	229.22020455	0.0
0.7885	230.748136827	0.0
0.7987	232.253968323	0.0
0.809	233.767260442	0.0
0.8192	235.258663542	0.0
0.8294	236.742939225	0.0
0.8397	238.234568733	0.0
0.8499	239.704622561	0.0
0.8602	241.181959752	0.0
0.8704	242.637927995	0.0
0.8806	244.086938164	0.0
0.8909	245.543127435	0.0
0.9011	246.978253652	0.0
0.9114	248.420490183	0.0
0.9216	249.841865479	0.0
0.9318	251.256448022	0.0
0.9421	252.678039095	0.0
0.9523	254.07906756	0.0
0.9626	255.487037402	0.0
0.9728	256.87464166	0.0
0.983	258.255614556	0.0
0.9933	259.643429464	1.0
1.0035	261.01117032	0.0
1.0138	262.385687629	0.0
1.024	263.740323229	0.0
1.0342	265.088485024	0.0
1.0445	266.443326269	0.0
1.0547	267.778570409	1.0
1.065	269.120429998	0.0
1.0752	270.442880256	0.0
1.0854	271.759010522	0.0
1.0957	273.081661538	0.0
1.1059	274.385181065	1.0
1.1162	275.695158863	1.0
1.1264	276.986188482	1.0
1.1366	278.27104827	0.0
1.1469	279.562273879	2.0
1.1571	280.834822551	0.0
1.1674	282.113676049	0.0
1.1776	283.374031567	0.0
1.1878	284.628363844	0.0
1.1981	285.888910695	0.0
1.2083	287.131224361	1.0
1.2186	288.379693055	1.0
1.2288	289.61010327	0.0
1.239	290.834633352	2.0
1.2493	292.065230353	1.0
1.2595	293.27802738	0.0
1.2698	294.496833195	0.0
1.28	295.698009589	1.0
1.2902	296.893445559	1.0
1.3005	298.094804302	1.0
1.3107	299.278785987	1.0
1.321	300.468633694	1.0
1.3312	301.641270846	0.0
1.3414	302.808303963	1.0
1.3517	303.981119131	2.0
1.3619	305.13697011	4.0
1.3722	306.298547738	2.0
1.3824	307.443323723	2.0
1.3926	308.582628822	2.0
1.4029	309.727578594	4.0
1.4131	310.855967236	3.0
1.4234	311.989946465	3.0
1.4336	313.107523248	2.0
1.4438	314.21975913	3.0
1.4541	315.33750557	4.0
1.4643	316.439084364	2.0
1.4746	317.546120916	1.0
1.4848	318.637144734	6.0
1.495	319.722954548	5.0
1.5053	320.814143993	5.0
1.5155	321.889549925	1.0
1.5258	322.970283941	9.0
1.536	324.035385677	8.0
1.5462	325.095397291	10.0
1.5565	326.160660718	6.0
1.5667	327.21051564	7.0
1.577	328.265572054	3.0
1.5872	329.305367601	2.0
1.5974	330.340193964	6.0
1.6077	331.380147361	8.0
1.6179	332.405058349	17.0
1.6282	333.435047246	5.0
1.6384	334.450137864	10.0
1.6486	335.460377364	12.0
1.6589	336.475622082	7.0
1.6691	337.47618179	9.0
1.6794	338.481698758	9.0
1.6896	339.472671422	11.0
1.6998	340.458908227	10.0
1.7101	341.45003133	21.0
1.7203	342.42681833	14.0
1.7306	343.408444808	16.0
1.7408	344.375872547	13.0
1.751	345.338676947	23.0
1.7613	346.30625155	16.0
1.7715	347.259830667	19.0
1.7818	348.218134279	16.0
1.792	349.162576506	24.0
1.8022	350.102505242	23.0
1.8125	351.047090843	28.0
1.8227	351.978013483	19.0
1.833	352.913548367	32.0
1.8432	353.835551204	34.0
1.8534	354.753147788	39.0
1.8637	355.675290592	37.0
1.8739	356.58409506	34.0
1.8842	357.497402187	37.0
1.8944	358.39749878	50.0
1.9046	359.293293811	46.0
1.9149	360.193527047	52.0
1.9251	361.080738856	52.0
1.9354	361.972346345	63.0
1.9456	362.851057175	60.0
1.9558	363.725568644	63.0
1.9661	364.604412869	61.0
1.9763	365.47054505	75.0
1.9866	366.340968471	67.0
1.9968	367.198801649	89.0
2.007	368.052535243	72.0
2.0173	368.910498648	77.0
2.0275	369.756052038	104.0
2.0378	370.605794713	82.0
2.048	371.443246281	96.0
2.0582	372.276695668	90.0
2.0685	373.114274369	111.0
2.0787	373.93973791	129.0
2.089	374.7692912	143.0
2.0992	375.586845414	142.0
2.1094	376.400492535	124.0
2.1197	377.21817086	155.0
2.1299	378.024021874	115.0
2.1402	378.833865467	174.0
2.1504	379.631995076	189.0
2.1606	380.426310421	184.0
2.1709	381.224561192	167.0
2.1811	382.011265662	205.0
2.1914	382.801867849	178.0
2.2016	383.581034369	230.0
2.2118	384.35647725	218.0
2.2221	385.135762054	250.0
2.2323	385.90377489	267.0
2.2426	386.675592836	257.0
2.2528	387.436246819	266.0
2.263	388.193265635	287.0
2.2733	388.954035091	282.0
2.2835	389.703800396	318.0
2.2938	390.457280403	281.0
2.304	391.199861696	335.0
2.3142	391.938894192	321.0
2.3245	392.681588215	345.0
2.3347	393.413539538	353.0
2.345	394.149117305	393.0
2.3552	394.874055304	365.0
2.3654	395.595528825	345.0
2.3757	396.320576876	380.0
2.3859	397.035137468	427.0
2.3962	397.75323834	414.0
2.4064	398.460952241	437.0
2.4166	399.165283976	435.0
2.4269	399.873105314	434.0
2.4371	400.570688367	456.0
2.4474	401.271727587	448.0
2.4576	401.962626623	451.0
2.4678	402.650223852	406.0
2.4781	403.341227772	405.0
2.4883	404.022236664	454.0
2.4986	404.706619606	460.0
2.5088	405.381103289	410.0
2.519	406.052363613	446.0
2.5293	406.726949688	413.0
2.5395	407.39177821	449.0
2.5498	408.059900617	414.0
2.56	408.718358966	408.0
2.5702	409.373670541	363.0
2.5805	410.032228849	381.0
2.5907	410.681261438	351.0
2.601	411.333509651	334.0
2.6112	411.976323417	367.0
2.6214	412.616065176	332.0
2.6317	413.258976527	370.0
2.6419	413.892588485	325.0
2.6522	414.529339665	318.0
2.6624	415.156880556	282.0
2.6726	415.781422428	299.0
2.6829	416.409058585	287.0
2.6931	417.027616296	296.0
2.7034	417.649238644	262.0
2.7136	418.261869534	232.0
2.7238	418.87157266	237.0
2.7341	419.484296552	237.0
2.7443	420.088157697	228.0
2.7546	420.695010665	219.0
2.7648	421.293085806	197.0
2.775	421.888302745	219.0
2.7853	422.486468679	235.0
2.7955	423.07598244	205.0
2.8058	423.66841694	205.0
2.816	424.252282168	205.0
2.8262	424.833357105	209.0
2.8365	425.417310969	233.0
2.8467	425.992818231	215.0
2.857	426.571176836	231.0
2.8672	427.141169771	218.0
2.8774	427.70843871	200.0
2.8877	428.278518175	233.0
2.8979	428.840351724	257.0
2.9082	429.40496887	232.0
2.9184	429.96141911	251.0
2.9286	430.515210073	266.0
2.9389	431.071744787	233.0
2.9491	431.620229502	258.0
2.9594	432.171431678	239.0
2.9696	432.714660988	264.0
2.9798	433.255294205	254.0
2.9901	433.798605982	274.0
3.0003	434.334059024	290.0
3.0106	434.872164962	315.0
3.0208	435.402487464	319.0
3.031	435.930275555	320.0
3.0413	436.460678565	338.0
3.0515	436.983409559	302.0
3.0618	437.508730417	349.0
3.072	438.02645277	326.0
3.0822	438.541700927	324.0
3.0925	439.059501874	352.0
3.1027	439.569813088	339.0
3.113	440.082652632	355.0
3.1232	440.588074207	387.0
3.1334	441.091080372	380.0
3.1437	441.596578675	356.0
3.1539	442.094765195	364.0
3.1642	442.595419975	416.0
3.1744	443.088833032	384.0
3.1846	443.579888067	403.0
3.1949	444.073376028	388.0
3.2051	444.559725931	376.0
3.2154	445.048485448	396.0
3.2256	445.530175302	444.0
3.2358	446.009563159	427.0
3.2461	446.491326138	448.0
3.2563	446.966120654	374.0
3.2666	447.443267534	418.0
3.2768	447.913512721	383.0
3.287	448.381510606	386.0
3.2973	448.85182718	409.0
3.3075	449.315340859	405.0
3.3178	449.78115101	432.0
3.328	450.240223449	412.0
3.3382	450.69710198	401.0
3.3485	451.15624411	436.0
3.3587	451.608744977	387.0
3.369	452.063487754	360.0
3.3792	452.511652903	374.0
3.3894	452.95767627	408.0
3.3997	453.405909454	431.0
3.4099	453.847659168	412.0
3.4202	454.291597524	399.0
3.4304	454.729114534	374.0
3.4406	455.164540649	379.0
3.4509	455.602124077	404.0
3.4611	456.033378078	364.0
3.4714	456.466768721	348.0
3.4816	456.893890585	358.0
3.4918	457.318971232	353.0
3.5021	457.746157936	357.0
3.5123	458.167165597	335.0
3.5226	458.590259134	360.0
3.5328	459.007232834	369.0
3.543	459.422213816	363.0
3.5533	459.839250816	321.0
3.5635	460.250255583	367.0
3.5738	460.663296668	351.0
3.584	461.070363319	362.0
3.5942	461.475484598	313.0
3.6045	461.882613045	313.0
3.6147	462.283852581	343.0
3.625	462.687080053	331.0
3.6352	463.084475041	355.0
3.6454	463.479970877	357.0
3.6557	463.877426192	332.0
3.6659	464.269132514	324.0
3.6762	464.66277954	342.0
3.6864	465.050732657	342.0
3.6966	465.436831745	306.0
3.7069	465.824843757	321.0
3.7171	466.207243368	306.0
3.7274	466.591537572	350.0
3.7376	466.970273152	313.0
3.7478	467.347198754	336.0
3.7581	467.725991829	333.0
3.7683	468.099305851	338.0
3.7786	468.474469452	303.0
3.7888	468.844206498	353.0
3.799	469.21217657	326.0
3.8093	469.581969746	328.0
3.8195	469.946414046	339.0
3.8298	470.312663982	347.0
3.84	470.673616294	325.0
3.8502	471.032843614	331.0
3.8605	471.393850722	315.0
3.8707	471.749636041	307.0
3.881	472.107184094	354.0
3.8912	472.459560392	315.0
3.9014	472.810252683	345.0
3.9117	473.162682475	328.0
3.9219	473.510014545	317.0
3.9322	473.859067467	360.0
3.9424	474.203071512	331.0
3.9526	474.545431562	327.0
3.9629	474.88948783	346.0
3.9731	475.228567495	336.0
3.9834	475.569327125	357.0
3.9936	475.905157837	337.0
4.0038	476.239383614	356.0
4.0141	476.575265308	353.0
4.0243	476.90628864	339.0
4.0346	477.238952023	334.0
4.0448	477.566803596	321.0
4.055	477.893088365	334.0
4.0653	478.220989709	345.0
4.0755	478.544148122	313.0
4.0858	478.868907619	346.0
4.096	479.188969632	327.0
4.1062	479.507502068	309.0
4.1165	479.827612668	338.0
4.1267	480.143093028	328.0
4.137	480.460136432	310.0
4.1472	480.77259396	301.0
4.1574	481.083558253	316.0
4.1677	481.396063215	317.0
4.1779	481.704047948	304.0
4.1882	482.013558587	323.0
4.1984	482.318592308	289.0
4.2086	482.622168273	321.0
4.2189	482.927248302	296.0
4.2291	483.227915499	320.0
4.2394	483.530072348	295.0
4.2496	483.827858648	307.0
4.2598	484.124221828	299.0
4.2701	484.422053335	305.0
4.2803	484.715576857	263.0
4.2906	485.010554637	244.0
4.3008	485.301265711	299.0
4.311	485.590587476	279.0
4.3213	485.881342682	265.0
4.3315	486.167892258	279.0
4.3418	486.455861541	286.0
4.352	486.739665491	275.0
4.3622	487.022113142	282.0
4.3725	487.305960176	257.0
4.3827	487.585701503	279.0
4.393	487.866828806	283.0
4.4032	488.143889741	281.0
4.4134	488.419626603	272.0
4.4237	488.696729598	300.0
4.4339	488.969824437	234.0
4.4442	489.244272321	256.0
4.4544	489.514750452	294.0
4.4646	489.783935968	274.0
4.4749	490.05445516	248.0
4.4851	490.321061427	272.0
4.4954	490.588988591	291.0
4.5056	490.853040321	282.0
4.5158	491.115830148	259.0
4.5261	491.379921964	289.0
4.5363	491.640193823	239.0
4.5466	491.901755196	267.0
4.5568	492.159533213	279.0
4.567	492.416079309	286.0
4.5773	492.673896459	247.0
4.5875	492.927984412	275.0
4.5978	493.183331241	260.0
4.608	493.434984604	261.0
4.6182	493.685435316	286.0
4.6285	493.937126883	288.0
4.6387	494.185177857	254.0
4.649	494.434457795	261.0
4.6592	494.680132024	290.0
4.6694	494.924632174	260.0
4.6797	495.170343698	287.0
4.6899	495.412501127	242.0
4.7002	495.655858321	297.0
4.7104	495.895695475	312.0
4.7206	496.134386446	283.0
4.7309	496.374260009	294.0
4.7411	496.61066392	312.0
4.7514	496.848239091	256.0
4.7616	497.082377856	278.0
4.7718	497.315397671	267.0
4.7821	497.549571979	271.0
4.7923	497.780359073	264.0
4.8026	498.012289598	254.0
4.8128	498.240865364	272.0
4.823	498.468348765	265.0
4.8333	498.69695923	247.0
4.8435	498.922262959	289.0
4.8538	499.148682952	293.0
4.864	499.371827892	293.0
4.8742	499.593906422	244.0
4.8845	499.817085238	272.0
4.8947	500.037035883	280.0
4.905	500.25807627	276.0
4.9152	500.475919418	260.0
4.9254	500.692721493	247.0
4.9357	500.910597712	249.0
4.9459	501.125322459	244.0
4.9562	501.341111058	260.0
4.9664	501.553778381	262.0
4.9766	501.765429367	249.0
4.9869	501.978128975	260.0
4.9971	502.187751989	236.0
5.0074	502.398413578	277.0
5.0176	502.606028051	245.0
5.0278	502.812650335	238.0
5.0381	503.020296326	254.0
5.0483	503.22493882	246.0
5.0586	503.430595214	228.0
5.0688	503.63327689	234.0
5.079	503.83498995	228.0
5.0893	504.037702395	226.0
5.0995	504.237482705	219.0
5.1098	504.438252824	188.0
5.12	504.636118903	207.0
5.1302	504.833039379	189.0
5.1405	505.030935496	207.0
5.1507	505.225969144	211.0
5.161	505.421969083	206.0
5.1712	505.615133981	204.0
5.1814	505.807375743	214.0
5.1917	506.000569965	185.0
5.2019	506.190969728	202.0
5.2122	506.382312825	198.0
5.2224	506.570888238	218.0
5.2326	506.75856245	190.0
5.2429	506.947166491	201.0
5.2531	507.133042468	189.0
5.2634	507.319839366	151.0
5.2736	507.503934339	166.0
5.2838	507.687149522	166.0
5.2941	507.871272442	167.0
5.3043	508.052732116	141.0
5.3146	508.235090829	174.0
5.3248	508.414811815	147.0
5.335	508.593673913	145.0
5.3453	508.773422181	118.0
5.3555	508.950570481	138.0
5.3658	509.128596458	134.0
5.376	509.304047379	137.0
5.3862	509.47865982	128.0
5.3965	509.654137375	129.0
5.4067	509.827076735	127.0
5.417	510.000872921	134.0
5.4272	510.172155231	120.0
5.4374	510.342618983	113.0
5.4477	510.513927296	109.0
5.4579	510.682757719	105.0
5.4682	510.85242461	108.0
5.4784	511.019637353	108.0
5.4886	511.186050987	96.0
5.4989	511.353289115	113.0
5.5091	511.518108227	94.0
5.5194	511.683743933	94.0
5.5296	511.8469838	84.0
5.5398	512.009443544	74.0
5.5501	512.172708193	86.0
5.5603	512.3336113	82.0
5.5706	512.495311599	71.0
5.5808	512.654672984	77.0
5.591	512.81327278	61.0
5.6013	512.972658357	91.0
5.6115	513.129738501	73.0
5.6218	513.287596897	77.0
5.632	513.443171949	59.0
5.6422	513.598003508	43.0
5.6525	513.753602177	53.0
5.6627	513.90695019	45.0
5.673	514.061057963	60.0
5.6832	514.212936644	61.0
5.6934	514.364089496	54.0
5.7037	514.515991233	57.0
5.7139	514.665695788	42.0
5.7242	514.816142051	39.0
5.7344	514.964412184	49.0
5.7446	515.111973734	50.0
5.7549	515.260266375	30.0
5.7651	515.406414038	34.0
5.7754	515.553285787	36.0
5.7856	515.698033109	32.0
5.7958	515.842088683	33.0
5.8061	515.986857979	35.0
5.8163	516.129533259	44.0
5.8266	516.272915422	27.0
5.8368	516.414223633	34.0
5.847	516.554856532	26.0
5.8573	516.696186195	34.0
5.8675	516.835471595	19.0
5.8778	516.975447082	24.0
5.888	517.113397893	21.0
5.8982	517.250689438	22.0
5.9085	517.388661191	14.0
5.9187	517.524637252	26.0
5.929	517.661287004	21.0
5.9392	517.795960186	19.0
5.9494	517.929989764	22.0
5.9597	518.06468339	13.0
5.9699	518.19742874	21.0
5.9802	518.330831775	14.0
5.9904	518.462305201	21.0
6.0006	518.593150316	11.0
6.0109	518.724643701	13.0
6.0211	518.854235099	17.0
6.0314	518.984468557	11.0
6.0416	519.112818252	12.0
6.0518	519.240554564	10.0
6.0621	519.368923744	15.0
6.0723	519.495436127	11.0
6.0826	519.622575314	12.0
6.0928	519.747875497	10.0
6.103	519.872576869	7.0
6.1133	519.997896073	9.0
6.1235	520.121402597	10.0
6.1338	520.245521032	7.0
6.144	520.367844156	10.0
6.1542	520.489582697	9.0
6.1645	520.611924391	7.0
6.1747	520.732496472	5.0
6.185	520.853665927	12.0
6.1952	520.973082726	7.0
6.2054	521.091928831	8.0
6.2157	521.211363758	12.0
6.2259	521.329071118	8.0
6.2362	521.447361658	6.0
6.2464	521.563941184	11.0
6.2566	521.679963576	6.0
6.2669	521.7965608	5.0
6.2771	521.911471503	6.0
6.2874	522.026951529	2.0
6.2976	522.140761194	7.0
6.3078	522.254026963	4.0
6.3181	522.367853905	4.0
6.3283	522.480034398	7.0
6.3386	522.592770687	7.0
6.3488	522.703876301	7.0
6.359	522.814450942	5.0
6.3693	522.925573424	2.0
6.3795	523.035088574	6.0
6.3898	523.145146315	3.0
6.4	523.253612126	6.0
6.4102	523.361559579	4.0
6.4205	523.470041855	3.0
6.4307	523.57695499	1.0
6.441	523.684397824	5.0
6.4512	523.790286552	4.0
6.4614	523.895669237	1.0
6.4717	524.001574038	0.0
6.4819	524.10594698	3.0
6.4922	524.210837036	2.0
6.5024	524.31420991	6.0
6.5126	524.417088764	5.0
6.5229	524.520477331	3.0
6.5331	524.622370433	3.0
6.5434	524.724768363	1.0
6.5536	524.825685158	2.0
6.5638	524.926119672	1.0
6.5741	525.027051787	5.0
6.5843	525.126523969	1.0
6.5946	525.226488985	1.0
6.6048	525.325008056	1.0
6.615	525.423056305	2.0
6.6253	525.521590333	3.0
6.6355	525.618699114	3.0
6.6458	525.71628902	2.0
6.656	525.812467337	3.0
6.6662	525.908186017	1.0
6.6765	526.004378934	3.0
6.6867	526.099180469	3.0
6.697	526.194451696	0.0
6.7072	526.288344873	3.0
6.7174	526.381789334	5.0
6.7277	526.475696764	7.0
6.7379	526.56824587	3.0
6.7482	526.661253509	1.0
6.7584	526.752915839	5.0
6.7686	526.844140115	2.0
6.7789	526.93581636	3.0
6.7891	527.026166554	2.0
6.7994	527.116964387	1.0
6.8096	527.206448874	5.0
6.8198	527.295505715	3.0
6.8301	527.385003786	0.0
6.8403	527.473207313	3.0
6.8506	527.561847843	4.0
6.8608	527.649206231	3.0
6.871	527.736147134	2.0
6.8813	527.823518784	1.0
6.8915	527.909626647	5.0
6.9018	527.99616113	1.0
6.912	528.081443935	1.0
6.9222	528.166319173	2.0
6.9325	528.251614925	5.0
6.9427	528.335676915	4.0
6.953	528.42015539	5.0
6.9632	528.503411926	2.0
6.9734	528.586270578	2.0
6.9837	528.669539753	4.0
6.9939	528.751604481	2.0
7.0042	528.834075797	2.0
7.0144	528.915354206	4.0
7.0246	528.996244186	4.0
7.0349	529.077534935	2.0
7.0451	529.157649853	0.0
7.0554	529.238161699	2.0
7.0656	529.317508981	0.0
7.0758	529.396477063	2.0
7.0861	529.475836391	1.0
7.0963	529.554047826	0.0
7.1066	529.632646758	1.0
7.1168	529.710108796	1.0
7.127	529.787200643	3.0
7.1373	529.86467444	2.0
7.1475	529.941027617	3.0
7.1578	530.017759086	3.0
7.168	530.093380671	0.0
7.1782	530.168640861	0.0
7.1885	530.244273927	1.0
7.1987	530.318812997	2.0
7.209	530.393721371	0.0
7.2192	530.467546233	4.0
7.2294	530.541018285	1.0
7.2397	530.614854353	2.0
7.2499	530.68762242	3.0
7.2602	530.760751015	2.0
7.2704	530.832821841	1.0
7.2806	530.904548241	2.0
7.2909	530.976630008	1.0
7.3011	531.047669148	0.0
7.3114	531.119060251	0.0
7.3216	531.189418716	2.0
7.3318	531.259440939	2.0
7.3421	531.329810086	1.0
7.3523	531.399161378	2.0
7.3626	531.46885627	1.0
7.3728	531.537543061	2.0
7.383	531.605901597	3.0
7.3933	531.674598814	4.0
7.4035	531.742302361	1.0
7.4138	531.810341343	1.0
7.424	531.877396176	3.0
7.4342	531.944130553	0.0
7.4445	532.011195566	0.0
7.4547	532.077290516	2.0
7.465	532.143712932	2.0
7.4752	532.209174582	4.0
7.4854	532.27432339	2.0
7.4957	532.339794977	1.0
7.5059	532.40431955	3.0
7.5162	532.469163809	0.0
7.5264	532.533070128	1.0
7.5366	532.596671039	1.0
7.5469	532.66058706	3.0
7.5571	532.723578567	1.0
7.5674	532.786882165	2.0
7.5776	532.849270108	0.0
7.5878	532.911359899	1.0
7.5981	532.973757312	0.0
7.6083	533.035252179	2.0
7.6186	533.09705172	3.0
7.6288	533.157957363	1.0
7.639	533.218571936	4.0
7.6493	533.279486825	2.0
7.6595	533.339520609	1.0
7.6698	533.39985183	2.0
7.68	533.45931039	0.0
7.6902	533.518484798	1.0
7.7005	533.577952384	4.0
7.7107	533.636559801	1.0
7.721	533.695457588	3.0
7.7312	533.753503448	3.0
7.7414	533.811271906	2.0
7.7517	533.869326578	1.0
7.7619	533.926541517	0.0
7.7722	533.984039927	3.0
7.7824	534.040706652	0.0
7.7926	534.097102566	3.0
7.8029	534.153777893	1.0
7.8131	534.209633439	3.0
7.8234	534.265765721	3.0
7.8336	534.321086077	1.0
7.8438	534.376142058	1.0
7.8541	534.431470812	2.0
7.8643	534.485999264	1.0
7.8746	534.540797876	1.0
