TL-DOS Lehrstuhlversuch
detector=R1406904
job_number=2015-10-14-002
irradiation_dose [mSv]=5.0

[BEGIN DATA]
time [sec] 	 temperature [K] 	 photoncount 
0.0	131.746655117	0.0
0.0102	133.406182464	0.0
0.0205	135.075335204	0.0
0.0307	136.721728652	1.0
0.041	138.377671316	4.0
0.0512	140.011034811	2.0
0.0614	141.63795358	0.0
0.0717	143.27430861	0.0
0.0819	144.888351553	0.0
0.0922	146.511756076	2.0
0.1024	148.113025095	0.0
0.1126	149.707976022	0.0
0.1229	151.312177795	0.0
0.1331	152.894505897	0.0
0.1434	154.486011632	2.0
0.1536	156.055816809	1.0
0.1638	157.619428042	0.0
0.1741	159.192108346	0.0
0.1843	160.743344784	0.0
0.1946	162.303578519	1.0
0.2048	163.842538098	2.0
0.215	165.375425439	1.0
0.2253	166.917203651	0.0
0.2355	168.437959353	2.0
0.2458	169.967535561	0.0
0.256	171.476255637	4.0
0.2662	172.97902279	1.0
0.2765	174.490506115	0.0
0.2867	175.981380007	1.0
0.297	177.480901089	0.0
0.3072	178.959975847	1.0
0.3174	180.433214653	0.0
0.3277	181.914998363	0.0
0.3379	183.376577603	0.0
0.3482	184.846634121	0.0
0.3584	186.296646072	0.0
0.3686	187.740936742	0.0
0.3789	189.193604416	0.0
0.3891	190.626464623	0.0
0.3994	192.067635536	0.0
0.4096	193.489155743	0.0
0.4198	194.90506709	0.0
0.4301	196.329190837	0.0
0.4403	197.733896321	0.0
0.4506	199.146749211	0.0
0.4608	200.540337518	0.0
0.471	201.928427175	0.0
0.4813	203.324567864	0.0
0.4915	204.701671846	0.0
0.5018	206.086763142	0.0
0.512	207.452968392	0.0
0.5222	208.813783036	0.0
0.5325	210.182490516	0.0
0.5427	211.532535346	0.0
0.553	212.890410546	0.0
0.5632	214.229770796	0.0
0.5734	215.563846363	0.0
0.5837	216.905659677	0.0
0.5939	218.229177049	0.0
0.6042	219.560370929	0.0
0.6144	220.873413667	0.0
0.6246	222.181275561	0.0
0.6349	223.496723161	0.0
0.6451	224.794234322	2.0
0.6554	226.099271153	0.0
0.6656	227.386513498	0.0
0.6758	228.6686768	0.0
0.6861	229.958276754	0.0
0.6963	231.230292708	0.0
0.7066	232.509686458	0.0
0.7168	233.771635371	1.0
0.727	235.028605041	0.0
0.7373	236.292865238	0.0
0.7475	237.539886948	2.0
0.7578	238.794141485	0.0
0.768	240.031293965	0.0
0.7782	241.263565041	0.0
0.7885	242.502983389	0.0
0.7987	243.725501975	1.0
0.809	244.955111268	0.0
0.8192	246.167954548	0.0
0.8294	247.37601234	0.0
0.8397	248.591076965	0.0
0.8499	249.789573897	0.0
0.8602	250.995022208	0.0
0.8704	252.184033947	1.0
0.8806	253.368354229	0.0
0.8909	254.559543665	0.0
0.9011	255.734490952	0.0
0.9114	256.916253028	0.0
0.9216	258.081901499	0.0
0.9318	259.242950698	0.0
0.9421	260.410734076	0.0
0.9523	261.562594452	0.0
0.9626	262.721135711	1.0
0.9728	263.863879987	0.0
0.983	265.002115362	0.0
0.9933	266.146952596	0.0
1.0035	267.276179703	1.0
1.0138	268.411956419	0.0
1.024	269.532246551	2.0
1.0342	270.64811638	1.0
1.0445	271.770458344	0.0
1.0547	272.877496911	0.0
1.065	273.990956391	0.0
1.0752	275.089233588	0.0
1.0854	276.183177337	0.0
1.0957	277.28346605	0.0
1.1059	278.368752065	0.0
1.1162	279.460332828	0.0
1.1264	280.537029629	0.0
1.1366	281.609478132	0.0
1.1469	282.688146924	0.0
1.1571	283.752107811	0.0
1.1674	284.822239758	0.0
1.1776	285.877780204	0.0
1.1878	286.929155827	1.0
1.1981	287.986629514	1.0
1.2083	289.029684298	1.0
1.2186	290.078788884	0.0
1.2288	291.113588681	0.0
1.239	292.144305492	0.0
1.2493	293.181000544	0.0
1.2595	294.203560015	1.0
1.2698	295.232050413	2.0
1.28	296.246517102	0.0
1.2902	297.256981032	1.0
1.3005	298.273305736	1.0
1.3107	299.275772612	0.0
1.321	300.284053877	1.0
1.3312	301.278586989	1.0
1.3414	302.269195994	1.0
1.3517	303.265550612	1.0
1.3619	304.2483197	0.0
1.3722	305.236788928	1.0
1.3824	306.211780144	1.0
1.3926	307.18292436	3.0
1.4029	308.159701291	2.0
1.4131	309.123159637	3.0
1.4234	310.092206121	0.0
1.4336	311.048039427	7.0
1.4438	312.000101322	2.0
1.4541	312.957685255	2.0
1.4643	313.902212304	3.0
1.4746	314.852217686	2.0
1.4848	315.789269521	3.0
1.495	316.722624052	4.0
1.5053	317.661392114	5.0
1.5155	318.587359853	1.0
1.5258	319.518698279	5.0
1.536	320.437337686	0.0
1.5462	321.352352438	4.0
1.5565	322.272674351	1.0
1.5667	323.180447456	4.0
1.577	324.093485719	2.0
1.5872	324.99407449	6.0
1.5974	325.891109828	7.0
1.6077	326.793348044	5.0
1.6179	327.683284029	7.0
1.6282	328.578381715	8.0
1.6384	329.461274532	9.0
1.6486	330.340683739	5.0
1.6589	331.225193591	10.0
1.6691	332.097642942	4.0
1.6794	332.97515257	14.0
1.6896	333.840697147	12.0
1.6998	334.702826565	18.0
1.7101	335.569956403	10.0
1.7203	336.425262721	12.0
1.7306	337.285529885	15.0
1.7408	338.134067103	14.0
1.751	338.979256267	22.0
1.7613	339.829347596	27.0
1.7715	340.66784773	21.0
1.7818	341.511211232	17.0
1.792	342.343075274	24.0
1.8022	343.171657049	23.0
1.8125	344.005044665	16.0
1.8227	344.827068845	24.0
1.833	345.653860831	30.0
1.8432	346.469379313	29.0
1.8534	347.281680023	22.0
1.8637	348.098692142	28.0
1.8739	348.904564109	31.0
1.8842	349.715110198	32.0
1.8944	350.5146043	22.0
1.9046	351.310943855	32.0
1.9149	352.111902246	39.0
1.9251	352.901939379	37.0
1.9354	353.696558792	38.0
1.9456	354.480343381	46.0
1.9558	355.261035409	45.0
1.9661	356.046255514	52.0
1.9763	356.820768958	58.0
1.9866	357.599774643	56.0
1.9968	358.368158401	60.0
2.007	359.133510364	80.0
2.0173	359.903301432	79.0
2.0275	360.662596216	76.0
2.0378	361.426294971	75.0
2.048	362.179580514	75.0
2.0582	362.929893835	90.0
2.0685	363.684559034	88.0
2.0787	364.428934195	89.0
2.089	365.177626792	104.0
2.0992	365.916110789	105.0
2.1094	366.651680966	130.0
2.1197	367.39151751	119.0
2.1299	368.121266208	142.0
2.1402	368.855247508	128.0
2.1504	369.579220799	135.0
2.1606	370.300337525	139.0
2.1709	371.025636787	150.0
2.1811	371.741046422	166.0
2.1914	372.460605491	180.0
2.2016	373.170353202	196.0
2.2118	373.877300478	210.0
2.2221	374.588348105	203.0
2.2323	375.28970043	249.0
2.2426	375.995120655	219.0
2.2528	376.690922309	241.0
2.263	377.383978554	220.0
2.2733	378.081054581	269.0
2.2835	378.768625813	279.0
2.2938	379.460185013	287.0
2.304	380.14231464	302.0
2.3142	380.821752804	294.0
2.3245	381.505131764	363.0
2.3347	382.179192691	343.0
2.345	382.857163226	343.0
2.3552	383.525889472	373.0
2.3654	384.19197714	414.0
2.3757	384.861928171	412.0
2.3859	385.522744262	395.0
2.3962	386.187393139	444.0
2.4064	386.842979372	473.0
2.4166	387.495978873	527.0
2.4269	388.152765824	507.0
2.4371	388.80059733	502.0
2.4474	389.452186312	539.0
2.4576	390.094890724	548.0
2.4678	390.735059231	557.0
2.4781	391.378940768	594.0
2.4883	392.014042828	583.0
2.4986	392.652828531	610.0
2.5088	393.282904241	615.0
2.519	393.910493875	676.0
2.5293	394.54172358	640.0
2.5395	395.164346318	716.0
2.5498	395.79058032	717.0
2.56	396.408275472	683.0
2.5702	397.023533399	725.0
2.5805	397.642359872	755.0
2.5907	398.2527485	751.0
2.601	398.866677431	779.0
2.6112	399.472235296	776.0
2.6214	400.075403825	831.0
2.6317	400.682070781	843.0
2.6419	401.28046569	816.0
2.6522	401.882331337	816.0
2.6624	402.475990405	855.0
2.6726	403.067307085	824.0
2.6829	403.66205345	855.0
2.6931	404.248690307	866.0
2.7034	404.838729707	878.0
2.7136	405.420723779	839.0
2.7238	406.000421491	862.0
2.7341	406.583481496	831.0
2.7443	407.158591341	779.0
2.7546	407.737036869	763.0
2.7648	408.307595156	741.0
2.775	408.875902204	757.0
2.7853	409.447505479	751.0
2.7955	410.011314809	770.0
2.8058	410.578394278	733.0
2.816	411.137741485	722.0
2.8262	411.694881688	656.0
2.8365	412.25525335	665.0
2.8467	412.807984211	672.0
2.857	413.363920957	602.0
2.8672	413.912277373	603.0
2.8774	414.458470152	564.0
2.8877	415.007830894	599.0
2.8979	415.549700972	558.0
2.9082	416.094713941	547.0
2.9184	416.632295529	541.0
2.9286	417.167755993	503.0
2.9389	417.706322172	514.0
2.9491	418.237544873	451.0
2.9594	418.77184871	446.0
2.9696	419.298867187	451.0
2.9798	419.82380622	468.0
2.9901	420.351789941	434.0
3.0003	420.87257448	442.0
3.0106	421.396379611	388.0
3.0208	421.913042536	393.0
3.031	422.427666875	404.0
3.0413	422.945276078	398.0
3.0515	423.455827556	380.0
3.0618	423.969340275	396.0
3.072	424.475851127	419.0
3.0822	424.98036345	388.0
3.0925	425.487801985	416.0
3.1027	425.988321476	439.0
3.113	426.491744021	409.0
3.1232	426.988302281	433.0
3.1334	427.482901282	408.0
3.1437	427.980368997	415.0
3.1539	428.471053623	432.0
3.1642	428.964584259	486.0
3.1744	429.451385488	483.0
3.1846	429.936265957	500.0
3.1949	430.423958772	485.0
3.2051	430.90500178	492.0
3.2154	431.388834876	561.0
3.2256	431.866070794	557.0
3.2358	432.341423693	499.0
3.2461	432.819533678	553.0
3.2563	433.29112452	565.0
3.2666	433.765450627	615.0
3.2768	434.233309185	589.0
3.287	434.699321725	609.0
3.2973	435.168037175	603.0
3.3075	435.63036158	657.0
3.3178	436.095367503	685.0
3.328	436.554032961	660.0
3.3382	437.010888673	660.0
3.3485	437.470394185	625.0
3.3587	437.923634231	650.0
3.369	438.379503106	692.0
3.3792	438.829156101	682.0
3.3894	439.27703491	662.0
3.3997	439.727511453	757.0
3.4099	440.171845642	709.0
3.4202	440.618757006	737.0
3.4304	441.059574627	692.0
3.4406	441.498652924	792.0
3.4509	441.940277911	797.0
3.4611	442.375881237	765.0
3.4714	442.814011098	738.0
3.4816	443.246166954	801.0
3.4918	443.676617663	775.0
3.5021	444.109565021	758.0
3.5123	444.536609039	727.0
3.5226	444.966129948	753.0
3.5328	445.389794237	787.0
3.543	445.811786884	793.0
3.5533	446.236227122	735.0
3.5635	446.654880018	829.0
3.5738	447.075961134	789.0
3.584	447.49130071	863.0
3.5942	447.90500149	777.0
3.6045	448.321101768	743.0
3.6147	448.73152842	787.0
3.625	449.14433558	795.0
3.6352	449.551514017	762.0
3.6454	449.95708586	759.0
3.6557	450.365010052	796.0
3.6659	450.767372101	783.0
3.6762	451.172067883	745.0
3.6864	451.571245542	782.0
3.6966	451.968848175	726.0
3.7069	452.368756936	747.0
3.7171	452.763212846	748.0
3.7274	453.159956632	734.0
3.7376	453.551290723	735.0
3.7478	453.941080736	702.0
3.7581	454.333131563	684.0
3.7683	454.719836684	741.0
3.7786	455.108784727	714.0
3.7888	455.492429371	684.0
3.799	455.874560277	684.0
3.8093	456.258907573	707.0
3.8195	456.638014203	673.0
3.8298	457.019319682	723.0
3.84	457.395425971	662.0
3.8502	457.770048266	661.0
3.8605	458.146843401	648.0
3.8707	458.518500844	668.0
3.881	458.892313932	669.0
3.8912	459.261029989	661.0
3.9014	459.628291212	673.0
3.9117	459.99768258	644.0
3.9219	460.362037209	670.0
3.9322	460.728505125	655.0
3.9424	461.089976164	598.0
3.9526	461.450020955	657.0
3.9629	461.812154036	648.0
3.9731	462.169349345	640.0
3.9834	462.528616417	606.0
3.9936	462.882984798	680.0
4.0038	463.235954955	649.0
4.0141	463.590972367	627.0
4.0243	463.941149034	658.0
4.0346	464.293356753	638.0
4.0448	464.640762037	598.0
4.055	464.986796572	625.0
4.0653	465.334838136	600.0
4.0755	465.67813407	639.0
4.0858	466.023421148	657.0
4.096	466.364000156	650.0
4.1062	466.703235349	587.0
4.1165	467.044438134	621.0
4.1267	467.380988538	650.0
4.137	467.719490961	609.0
4.1472	468.053377824	615.0
4.1574	468.385947278	627.0
4.1677	468.720445661	649.0
4.1779	469.050383079	655.0
4.1882	469.382234162	619.0
4.1984	469.709560377	653.0
4.2086	470.035595067	628.0
4.2189	470.363520786	655.0
4.2291	470.68697516	596.0
4.2394	471.012305596	599.0
4.2496	471.333200074	615.0
4.2598	471.652828406	663.0
4.2701	471.974310609	662.0
4.2803	472.291409325	648.0
4.2906	472.61034724	647.0
4.3008	472.924936362	649.0
4.311	473.238284215	640.0
4.3213	473.553449513	576.0
4.3315	473.864317456	632.0
4.3418	474.176988459	643.0
4.352	474.485396119	625.0
4.3622	474.792586902	640.0
4.3725	475.101559417	640.0
4.3827	475.406319018	611.0
4.393	475.71284625	603.0
4.4032	476.01519391	627.0
4.4134	476.316348604	589.0
4.4237	476.61925002	594.0
4.4339	476.918021303	583.0
4.4442	477.218525485	619.0
4.4544	477.51493222	627.0
4.4646	477.810169431	606.0
4.4749	478.107119041	606.0
4.4851	478.400019673	592.0
4.4954	478.694619152	574.0
4.5056	478.985201698	608.0
4.5158	479.274637699	617.0
4.5261	479.565752452	591.0
4.5363	479.852897787	577.0
4.5466	480.141708588	576.0
4.5568	480.426581386	572.0
4.567	480.710330168	572.0
4.5773	480.995724715	611.0
4.5875	481.27722784	600.0
4.5978	481.560363707	553.0
4.608	481.839638949	566.0
4.6182	482.117812261	558.0
4.6285	482.397599	590.0
4.6387	482.673570782	551.0
4.649	482.951143222	543.0
4.6592	483.224930897	586.0
4.6694	483.497638293	545.0
4.6797	483.771927415	536.0
4.6899	484.042476539	562.0
4.7002	484.314594871	561.0
4.7104	484.583002805	583.0
4.7206	484.850351687	515.0
4.7309	485.119251215	548.0
4.7411	485.384484235	541.0
4.7514	485.651255627	584.0
4.7616	485.914389529	535.0
4.7718	486.176485189	521.0
4.7821	486.440101025	523.0
4.7923	486.700122397	511.0
4.8026	486.961651914	502.0
4.8128	487.219615414	513.0
4.823	487.476561073	498.0
4.8333	487.734997038	529.0
4.8435	487.989909168	515.0
4.8538	488.246299809	505.0
4.864	488.499194503	507.0
4.8742	488.751091356	538.0
4.8845	489.004449231	544.0
4.8947	489.254352511	532.0
4.905	489.505705252	469.0
4.9152	489.753630738	476.0
4.9254	490.00057799	501.0
4.9357	490.248957556	483.0
4.9459	490.493950408	507.0
4.9562	490.740364238	509.0
4.9664	490.983418158	546.0
4.9766	491.225513065	499.0
4.9869	491.469012143	494.0
4.9971	491.709191053	501.0
5.0074	491.95076302	487.0
5.0176	492.189041097	516.0
5.0278	492.426379005	501.0
5.0381	492.665093492	518.0
5.0483	492.900553051	487.0
5.0586	493.137378294	530.0
5.0688	493.370974369	519.0
5.079	493.603648749	514.0
5.0893	493.83767266	497.0
5.0995	494.068505599	511.0
5.1098	494.300677389	485.0
5.12	494.529683461	513.0
5.1302	494.757785949	508.0
5.1405	494.987211449	510.0
5.1507	495.213508679	493.0
5.161	495.441118452	514.0
5.1712	495.665624711	494.0
5.1814	495.889245141	496.0
5.1917	496.114162588	539.0
5.2019	496.336013232	528.0
5.2122	496.559150628	484.0
5.2224	496.779245493	530.0
5.2326	496.998471934	502.0
5.2429	497.218969907	523.0
5.2531	497.436461337	536.0
5.2634	497.655214236	511.0
5.2736	497.870984387	510.0
5.2838	498.085903179	492.0
5.2941	498.302068517	531.0
5.3043	498.51528639	514.0
5.3146	498.729740944	514.0
5.3248	498.941271359	507.0
5.335	499.151967143	540.0
5.3453	499.363884981	478.0
5.3555	499.572913268	501.0
5.3658	499.783153936	507.0
5.376	499.990527924	511.0
5.3862	500.19708368	502.0
5.3965	500.404837477	498.0
5.4067	500.609758501	466.0
5.417	500.815868084	492.0
5.4272	501.019167314	455.0
5.4374	501.221664391	497.0
5.4477	501.425335968	470.0
5.4579	501.626230434	488.0
5.4682	501.828290105	479.0
5.4784	502.027594644	464.0
5.4886	502.226112792	483.0
5.4989	502.425782361	477.0
5.5091	502.622729389	433.0
5.5194	502.820818725	455.0
5.5296	503.016207067	492.0
5.5398	503.210824469	415.0
5.5501	503.406570668	443.0
5.5603	503.599647821	474.0
5.5706	503.793844837	451.0
5.5808	503.985393931	435.0
5.591	504.176187234	473.0
5.6013	504.368087154	434.0
5.6115	504.557370473	432.0
5.6218	504.747751651	468.0
5.632	504.935536936	497.0
5.6422	505.122581281	434.0
5.6525	505.310710499	392.0
5.6627	505.49627453	404.0
5.673	505.682914848	419.0
5.6832	505.867010281	402.0
5.6934	506.050379333	401.0
5.7037	506.23481194	407.0
5.7139	506.416729765	370.0
5.7242	506.599702728	356.0
5.7344	506.780180812	387.0
5.7446	506.959946787	370.0
5.7549	507.140755419	343.0
5.7651	507.319098683	353.0
5.7754	507.498476353	373.0
5.7856	507.675408166	354.0
5.7958	507.851641862	340.0
5.8061	508.028897729	343.0
5.8163	508.20373667	359.0
5.8266	508.379589691	311.0
5.8368	508.553044914	312.0
5.847	508.725815739	302.0
5.8573	508.899588649	311.0
5.8675	509.070992125	311.0
5.8778	509.243389754	312.0
5.888	509.413436701	282.0
5.8982	509.582812697	266.0
5.9085	509.753171089	284.0
5.9187	509.921206603	248.0
5.929	510.090216737	286.0
5.9392	510.256922377	298.0
5.9494	510.422970251	221.0
5.9597	510.589981216	253.0
5.9699	510.754714948	272.0
5.9802	510.920404148	225.0
5.9904	511.083834137	260.0
6.0006	511.246619284	214.0
6.0109	511.410348598	201.0
6.0211	511.571845424	207.0
6.0314	511.734278944	252.0
6.0416	511.894497646	217.0
6.0518	512.054084176	210.0
6.0621	512.214596321	202.0
6.0723	512.372919844	186.0
6.0826	512.532161658	174.0
6.0928	512.689232171	194.0
6.103	512.845682935	187.0
6.1133	513.003041126	188.0
6.1235	513.158253701	172.0
6.1338	513.314366521	163.0
6.144	513.468350706	152.0
6.1542	513.62172732	159.0
6.1645	513.77599353	183.0
6.1747	513.928156284	156.0
6.185	514.081201594	145.0
6.1952	514.232160095	122.0
6.2054	514.382522963	124.0
6.2157	514.533757947	119.0
6.2259	514.682930807	129.0
6.2362	514.832968882	127.0
6.2464	514.980961152	107.0
6.2566	515.128369492	132.0
6.2669	515.276632812	97.0
6.2771	515.422874528	113.0
6.2874	515.569964457	120.0
6.2976	515.71504878	100.0
6.3078	515.859560647	90.0
6.3181	516.004910694	89.0
6.3283	516.14827886	92.0
6.3386	516.292478572	78.0
6.3488	516.434712088	89.0
6.359	516.576384395	75.0
6.3693	516.718878414	84.0
6.3795	516.859429493	79.0
6.3898	517.00079578	60.0
6.4	517.140234504	70.0
6.4102	517.279123047	78.0
6.4205	517.418817156	60.0
6.4307	517.556606502	58.0
6.441	517.695195038	59.0
6.4512	517.831893887	45.0
6.4614	517.968053365	49.0
6.4717	518.10500258	50.0
6.4819	518.24008446	50.0
6.4922	518.375949826	43.0
6.5024	518.509962636	42.0
6.5126	518.643446674	40.0
6.5229	518.77770493	45.0
6.5331	518.910132544	39.0
6.5434	519.043328248	37.0
6.5536	519.174707797	38.0
6.5638	519.305568965	40.0
6.5741	519.437189139	34.0
6.5843	519.56701464	36.0
6.5946	519.69759314	34.0
6.6048	519.826391171	35.0
6.615	519.954681007	47.0
6.6253	520.083714934	31.0
6.6355	520.210989453	42.0
6.6458	520.339002174	23.0
6.656	520.465269412	31.0
6.6662	520.59103844	21.0
6.6765	520.717536939	29.0
6.6867	520.842310601	19.0
6.697	520.96780796	21.0
6.7072	521.091594133	23.0
6.7174	521.214891886	24.0
6.7277	521.338904775	21.0
6.7379	521.46122672	16.0
6.7482	521.584258142	16.0
6.7584	521.705612001	18.0
6.7686	521.826487037	19.0
6.7789	521.948063158	25.0
6.7891	522.06798156	19.0
6.7994	522.188595499	19.0
6.8096	522.307564838	18.0
6.8198	522.426064762	13.0
6.8301	522.545251996	23.0
6.8403	522.662814083	18.0
6.8506	522.78105804	9.0
6.8608	522.897689713	7.0
6.871	523.013861195	14.0
6.8813	523.130706481	15.0
6.8915	523.245958554	15.0
6.9018	523.361879098	7.0
6.912	523.476219038	13.0
6.9222	523.59010783	7.0
6.9325	523.704657186	12.0
6.9427	523.817644634	12.0
6.953	523.931287419	12.0
6.9632	524.043380657	12.0
6.9734	524.155031612	14.0
6.9837	524.267330151	9.0
6.9939	524.378097474	11.0
7.0042	524.489507256	11.0
7.0144	524.599397939	18.0
7.0246	524.708855028	8.0
7.0349	524.818946978	9.0
7.0451	524.927537798	8.0
7.0554	525.036758454	7.0
7.0656	525.14448986	6.0
7.0758	525.251796193	4.0
7.0861	525.359724912	10.0
7.0963	525.466181996	6.0
7.1066	525.573256541	13.0
7.1168	525.678871099	8.0
7.127	525.784068936	3.0
7.1373	525.889876928	4.0
7.1475	525.994242204	8.0
7.1578	526.099212807	5.0
7.168	526.202752111	8.0
7.1782	526.305882882	9.0
7.1885	526.409611821	3.0
7.1987	526.51192639	10.0
7.209	526.614834393	6.0
7.2192	526.71633922	3.0
7.2294	526.817443542	7.0
7.2397	526.919134277	8.0
7.2499	527.019438436	6.0
7.2602	527.120324366	6.0
7.2704	527.219834693	5.0
7.2806	527.318952384	7.0
7.2909	527.418644966	6.0
7.3011	527.516978217	2.0
7.3114	527.615881808	1.0
7.3216	527.713436825	3.0
7.3318	527.810606921	5.0
7.3421	527.908340612	4.0
7.3523	528.004741681	3.0
7.3626	528.101701884	1.0
7.3728	528.197340012	4.0
7.383	528.292600782	3.0
7.3933	528.388414073	6.0
7.4035	528.482920927	4.0
7.4138	528.577975928	5.0
7.424	528.671734832	7.0
7.4342	528.765123794	1.0
7.4445	528.859054419	7.0
7.4547	528.951704277	5.0
7.465	529.044891513	4.0
7.4752	529.136808119	2.0
7.4854	529.228362051	5.0
7.4957	529.320447003	5.0
7.5059	529.411276356	4.0
7.5162	529.502632526	6.0
7.5264	529.592743033	2.0
7.5366	529.682497993	5.0
7.5469	529.772773539	6.0
7.5571	529.861818157	2.0
7.5674	529.951379241	4.0
7.5776	530.039719138	1.0
7.5878	530.127710475	0.0
7.5981	530.216212168	1.0
7.6083	530.30350712	2.0
7.6186	530.39130839	3.0
7.6288	530.477912468	5.0
7.639	530.564174835	2.0
7.6493	530.650937531	7.0
7.6595	530.736517197	6.0
7.6698	530.822593232	5.0
7.68	530.907495599	5.0
7.6902	530.99206297	4.0
7.7005	531.077120838	5.0
7.7107	531.161018922	2.0
7.721	531.245403621	4.0
7.7312	531.328637716	6.0
7.7414	531.411543395	5.0
7.7517	531.494929934	4.0
7.7619	531.577179478	3.0
7.7722	531.659906076	3.0
7.7824	531.741504677	2.0
7.7926	531.822781317	3.0
7.8029	531.904529367	3.0
7.8131	531.985162764	2.0
