TL-DOS Lehrstuhlversuch
detector=R1407205
job_number=2015-11-04-004
irradiation_dose [mSv]=0.09

[BEGIN DATA]
time [sec] 	 temperature [K] 	 photoncount 
0.0	147.461853642	0.0
0.0102	148.952377263	0.0
0.0205	150.452218765	4.0
0.0307	151.93227343	0.0
0.041	153.421580531	1.0
0.0512	154.89123977	2.0
0.0614	156.355753887	1.0
0.0717	157.829423288	2.0
0.0819	159.283651131	2.0
0.0922	160.746969956	0.0
0.1024	162.190983773	0.0
0.1126	163.629942249	2.0
0.1229	165.077896251	0.0
0.1331	166.506747947	1.0
0.1434	167.944531989	1.0
0.1536	169.363347894	2.0
0.1638	170.777196672	0.0
0.1741	172.199884006	1.0
0.1843	173.603802368	1.0
0.1946	175.016497207	0.0
0.2048	176.4105549	1.0
0.215	177.799732144	2.0
0.2253	179.197593711	0.0
0.2355	180.577013823	0.0
0.2458	181.965057262	0.0
0.256	183.334788774	0.0
0.2662	184.699724998	0.0
0.2765	186.073194005	0.0
0.2867	187.428543359	0.0
0.297	188.792365564	1.0
0.3072	190.138195383	0.0
0.3174	191.479313592	1.0
0.3277	192.828815688	0.0
0.3379	194.160514316	0.0
0.3482	195.500537946	0.0
0.3584	196.822883154	0.0
0.3686	198.14059897	0.0
0.3789	199.466552374	0.0
0.3891	200.775012981	0.0
0.3994	202.091653317	0.0
0.4096	203.39092372	0.0
0.4198	204.685645512	0.0
0.4301	205.988461148	0.0
0.4403	207.274089234	0.0
0.4506	208.567754314	0.0
0.4608	209.844352563	0.0
0.471	211.116481576	0.0
0.4813	212.396563195	0.0
0.4915	213.659757185	0.0
0.5018	214.930847925	0.0
0.512	216.185169649	0.0
0.5222	217.435100124	0.0
0.5325	218.692844433	0.0
0.5427	219.933995801	0.0
0.553	221.182906121	1.0
0.5632	222.415340043	0.0
0.5734	223.643459342	0.0
0.5837	224.879256125	0.0
0.5939	226.098749512	0.0
0.6042	227.325866458	0.0
0.6144	228.536794518	0.0
0.6246	229.743483246	0.0
0.6349	230.957715485	2.0
0.6451	232.155928821	0.0
0.6554	233.361632686	0.0
0.6656	234.55143016	0.0
0.6758	235.737062276	0.0
0.6861	236.930106271	1.0
0.6963	238.107410892	0.0
0.7066	239.292075332	0.0
0.7168	240.461110945	0.0
0.727	241.626053887	0.0
0.7373	242.798279371	0.0
0.7475	243.955040131	0.0
0.7578	245.119032282	0.0
0.768	246.267668328	0.0
0.7782	247.41228312	0.0
0.7885	248.564053374	0.0
0.7987	249.700628761	0.0
0.809	250.844309353	0.0
0.8192	251.972901803	2.0
0.8294	253.097543169	1.0
0.8397	254.229215134	0.0
0.8499	255.345957383	0.0
0.8602	256.46968085	0.0
0.8704	257.578579462	0.0
0.8806	258.683595937	0.0
0.8909	259.795520327	1.0
0.9011	260.892775523	0.0
0.9114	261.996890116	0.0
0.9216	263.086438547	1.0
0.9318	264.172172582	0.0
0.9421	265.264693991	0.0
0.9523	266.342802182	0.0
0.9626	267.427650074	0.0
0.9728	268.498185981	0.0
0.983	269.564974054	0.0
0.9933	270.638431062	0.0
1.0035	271.697726361	0.0
1.0138	272.763643754	1.0
1.024	273.815498906	0.0
1.0342	274.863671622	0.0
1.0445	275.918396901	0.0
1.0547	276.959207591	0.0
1.065	278.006524821	0.0
1.0752	279.040025194	1.0
1.0854	280.06990739	1.0
1.0957	281.106227807	0.0
1.1059	282.128876443	1.0
1.1162	283.157918081	0.0
1.1264	284.173383964	0.0
1.1366	285.185294808	0.0
1.1469	286.203531526	0.0
1.1571	287.208335035	1.0
1.1674	288.219419988	0.0
1.1776	289.217166082	0.0
1.1878	290.211419172	0.0
1.1981	291.21188775	0.0
1.2083	292.199157527	0.0
1.2186	293.192599138	0.0
1.2288	294.172934652	0.0
1.239	295.149838114	0.0
1.2493	296.132848604	0.0
1.2595	297.102890612	1.0
1.2698	298.078996755	0.0
1.28	299.042225502	0.0
1.2902	300.002082086	0.0
1.3005	300.967939131	0.0
1.3107	301.921053992	0.0
1.321	302.88012717	1.0
1.3312	303.826547661	0.0
1.3414	304.769654833	0.0
1.3517	305.718657759	1.0
1.3619	306.655140851	0.0
1.3722	307.597478288	0.0
1.3824	308.527383826	0.0
1.3926	309.454033861	0.0
1.4029	310.386476771	0.0
1.4131	311.306618317	0.0
1.4234	312.232512049	0.0
1.4336	313.146190818	0.0
1.4438	314.056670893	0.0
1.4541	314.972842757	1.0
1.4643	315.876927915	1.0
1.4746	316.786664884	0.0
1.4848	317.684400041	1.0
1.495	318.57899232	0.0
1.5053	319.479177066	0.0
1.5155	320.367486019	1.0
1.5258	321.261348159	2.0
1.536	322.143417917	0.0
1.5462	323.022399641	2.0
1.5565	323.906876244	2.0
1.5667	324.779684284	1.0
1.577	325.65794861	1.0
1.5872	326.524626329	1.0
1.5974	327.3882699	0.0
1.6077	328.257312465	1.0
1.6179	329.114890083	0.0
1.6282	329.977828775	0.0
1.6384	330.829383045	5.0
1.6486	331.677956113	0.0
1.6589	332.531833963	0.0
1.6691	333.374446928	1.0
1.6794	334.222327416	2.0
1.6896	335.05902214	0.0
1.6998	335.892787684	1.0
1.7101	336.731765442	1.0
1.7203	337.559674886	1.0
1.7306	338.392759935	1.0
1.7408	339.214854411	1.0
1.751	340.03407082	0.0
1.7613	340.858408491	1.0
1.7715	341.671870989	3.0
1.7818	342.490418778	3.0
1.792	343.298167779	2.0
1.8022	344.103088935	0.0
1.8125	344.913041986	2.0
1.8227	345.712309636	0.0
1.833	346.51657384	0.0
1.8432	347.310227693	0.0
1.8534	348.101103046	3.0
1.8637	348.896922489	2.0
1.8739	349.68224299	4.0
1.8842	350.472472855	1.0
1.8944	351.252277519	0.0
1.9046	352.029352168	4.0
1.9149	352.811284633	3.0
1.9251	353.582901361	2.0
1.9354	354.359341786	4.0
1.9456	355.125538927	2.0
1.9558	355.889053693	0.0
1.9661	356.657341506	3.0
1.9763	357.415493591	2.0
1.9866	358.1783852	4.0
1.9968	358.93121227	7.0
2.007	359.681403771	2.0
2.0173	360.43628503	3.0
2.0275	361.181207429	5.0
2.0378	361.930786647	4.0
2.048	362.670476952	5.0
2.0582	363.407577678	1.0
2.0685	364.149286327	6.0
2.0787	364.881209896	4.0
2.089	365.617709023	5.0
2.0992	366.344491798	6.0
2.1094	367.068730183	7.0
2.1197	367.797496082	6.0
2.1299	368.51664765	2.0
2.1402	369.240294933	5.0
2.1504	369.954395414	9.0
2.1606	370.665995903	3.0
2.1709	371.382044902	2.0
2.1811	372.08864734	6.0
2.1914	372.799667042	5.0
2.2016	373.501306533	3.0
2.2118	374.200489657	5.0
2.2221	374.904043665	3.0
2.2323	375.598315953	8.0
2.2426	376.296928426	7.0
2.2528	376.98632437	5.0
2.263	377.673306811	1.0
2.2733	378.364583864	7.0
2.2835	379.046741163	8.0
2.2938	379.73316291	13.0
2.304	380.410528956	5.0
2.3142	381.085523615	12.0
2.3245	381.764737945	3.0
2.3347	382.43499166	7.0
2.345	383.109435408	8.0
2.3552	383.774981478	9.0
2.3654	384.43819754	13.0
2.3757	385.105559641	5.0
2.3859	385.764117488	11.0
2.3962	386.426792253	11.0
2.4064	387.080724603	15.0
2.4166	387.732367604	9.0
2.4269	388.388084296	11.0
2.4371	389.035150367	11.0
2.4474	389.686261517	19.0
2.4576	390.328782805	11.0
2.4678	390.969054694	9.0
2.4781	391.613329188	10.0
2.4883	392.249104014	15.0
2.4986	392.888853333	11.0
2.5088	393.520162682	16.0
2.519	394.149261884	8.0
2.5293	394.782293845	11.0
2.5395	395.406974457	8.0
2.5498	396.035560207	18.0
2.56	396.655853265	11.0
2.5702	397.273974741	14.0
2.5805	397.895960351	12.0
2.5907	398.509740342	10.0
2.601	399.127357327	8.0
2.6112	399.736826326	12.0
2.6214	400.344161638	11.0
2.6317	400.955293655	9.0
2.6419	401.55836324	14.0
2.6522	402.165202863	18.0
2.6624	402.764036682	18.0
2.6726	403.360774047	12.0
2.6829	403.961241865	15.0
2.6931	404.553787939	8.0
2.7034	405.150038265	15.0
2.7136	405.738422488	10.0
2.7238	406.324746839	8.0
2.7341	406.914736547	16.0
2.7443	407.496942745	11.0
2.7546	408.082788556	12.0
2.7648	408.660905527	12.0
2.775	409.23699857	7.0
2.7853	409.81669301	16.0
2.7955	410.388739762	12.0
2.8058	410.964362616	14.0
2.816	411.532391497	14.0
2.8262	412.098431768	10.0
2.8365	412.668010592	15.0
2.8467	413.230075179	12.0
2.857	413.795653465	14.0
2.8672	414.353770293	11.0
2.8774	414.909933212	14.0
2.8877	415.469572936	8.0
2.8979	416.021829547	7.0
2.9082	416.577538542	7.0
2.9184	417.125916281	15.0
2.9286	417.672374207	14.0
2.9389	418.222248267	7.0
2.9491	418.764868049	9.0
2.9594	419.310879973	11.0
2.9696	419.849688569	8.0
2.9798	420.386610852	6.0
2.9901	420.92688966	11.0
3.0003	421.460040775	8.0
3.0106	421.996524839	11.0
3.0208	422.525931273	12.0
3.031	423.05348431	7.0
3.0413	423.584335301	6.0
3.0515	424.108182977	6.0
3.0618	424.635305441	9.0
3.072	425.155473781	12.0
3.0822	425.673821065	7.0
3.0925	426.195408753	12.0
3.1027	426.710115333	13.0
3.113	427.228039558	5.0
3.1232	427.739131006	16.0
3.1334	428.248433176	5.0
3.1437	428.760919206	10.0
3.1539	429.266644202	15.0
3.1642	429.775530696	18.0
3.1744	430.277703643	12.0
3.1846	430.778118536	15.0
3.1949	431.28166173	10.0
3.2051	431.778561871	10.0
3.2154	432.27856834	15.0
3.2256	432.771978415	13.0
3.2358	433.263661112	13.0
3.2461	433.758417522	22.0
3.2563	434.2466468	12.0
3.2666	434.737928201	15.0
3.2768	435.222728314	9.0
3.287	435.705831192	11.0
3.2973	436.191954147	15.0
3.3075	436.671663867	11.0
3.3178	437.154372451	14.0
3.328	437.630712845	25.0
3.3382	438.105385622	15.0
3.3485	438.583025774	12.0
3.3587	439.054364603	13.0
3.369	439.528649965	15.0
3.3792	439.996678262	22.0
3.3894	440.463068041	17.0
3.3997	440.932373415	15.0
3.4099	441.395487423	16.0
3.4202	441.861496548	21.0
3.4304	442.321357793	22.0
3.4406	442.779609112	22.0
3.4509	443.240725149	17.0
3.4611	443.695757859	21.0
3.4714	444.153635167	20.0
3.4816	444.605471874	21.0
3.4918	445.055726748	23.0
3.5021	445.508796352	13.0
3.5123	445.955888781	20.0
3.5226	446.40577617	19.0
3.5328	446.849728367	20.0
3.543	447.292126334	17.0
3.5533	447.737289914	19.0
3.5635	448.17658062	16.0
3.5738	448.618617515	14.0
3.584	449.054822785	15.0
3.5942	449.489500947	17.0
3.6045	449.926896462	12.0
3.6147	450.358521584	15.0
3.625	450.792844975	19.0
3.6352	451.221438502	14.0
3.6454	451.648531569	14.0
3.6557	452.078294571	14.0
3.6659	452.502387874	17.0
3.6762	452.92913236	17.0
3.6864	453.350246968	20.0
3.6966	453.769887299	18.0
3.7069	454.192150975	14.0
3.7171	454.608843888	18.0
3.7274	455.02814172	14.0
3.7376	455.441907917	15.0
3.7478	455.854225561	13.0
3.7581	456.269120773	16.0
3.7683	456.678542432	14.0
3.7786	457.090523555	11.0
3.7888	457.497069568	12.0
3.799	457.902192306	14.0
3.8093	458.309847634	7.0
3.8195	458.712124921	8.0
3.8298	459.11691701	13.0
3.84	459.516368832	17.0
3.8502	459.914422214	9.0
3.8605	460.314963993	12.0
3.8707	460.710221577	14.0
3.881	461.10795008	9.0
3.8912	461.500431503	11.0
3.9014	461.89153889	8.0
3.9117	462.28509125	14.0
3.9219	462.673451625	11.0
3.9322	463.064239801	15.0
3.9424	463.449872458	10.0
3.9526	463.834155056	9.0
3.9629	464.220839963	10.0
3.9731	464.602423484	13.0
3.9834	464.986392441	8.0
3.9936	465.365295843	11.0
4.0038	465.742872743	10.0
4.0141	466.122810033	13.0
4.0243	466.497734955	14.0
4.0346	466.875003689	16.0
4.0448	467.24729526	10.0
4.055	467.618283477	11.0
4.0653	467.991590895	12.0
4.0755	468.359973411	16.0
4.0858	468.730658838	10.0
4.096	469.096453955	15.0
4.1062	469.46096846	12.0
4.1165	469.827761698	16.0
4.1267	470.189715971	16.0
4.137	470.553932971	12.0
4.1472	470.913344995	7.0
4.1574	471.271498756	19.0
4.1677	471.631891483	14.0
4.1779	471.987529687	13.0
4.1882	472.345391133	12.0
4.1984	472.69853145	16.0
4.2086	473.050435459	16.0
4.2189	473.404539366	10.0
4.2291	473.753971715	13.0
4.2394	474.10558851	11.0
4.2496	474.452566559	10.0
4.2598	474.798329875	18.0
4.2701	475.1462547	11.0
4.2803	475.489589486	12.0
4.2906	475.8350706	7.0
4.3008	476.175993913	10.0
4.311	476.515723689	11.0
4.3213	476.857577258	10.0
4.3315	477.194920882	12.0
4.3418	477.534373381	10.0
4.352	477.869347613	15.0
4.3622	478.203149135	14.0
4.3725	478.539037389	10.0
4.3827	478.870494397	9.0
4.393	479.204023481	8.0
4.4032	479.533152442	14.0
4.4134	479.861129157	12.0
4.4237	480.191156191	17.0
4.4339	480.516829304	21.0
4.4442	480.844538335	16.0
4.4544	481.167924025	13.0
4.4646	481.490177576	9.0
4.4749	481.814445667	10.0
4.4851	482.134435814	9.0
4.4954	482.456426351	10.0
4.5056	482.77416899	10.0
4.5158	483.090799245	9.0
4.5261	483.409408887	4.0
4.5363	483.723815234	15.0
4.5466	484.040187065	11.0
4.5568	484.352385123	3.0
4.567	484.663490209	12.0
4.5773	484.976540141	18.0
4.5875	485.285460125	14.0
4.5978	485.596311296	10.0
4.608	485.903061526	12.0
4.6182	486.208737855	5.0
4.6285	486.516325094	12.0
4.6387	486.819854452	8.0
4.649	487.125281298	7.0
4.6592	487.426678764	11.0
4.6694	487.727021068	12.0
4.6797	488.029240938	14.0
4.6899	488.327473735	14.0
4.7002	488.62757091	9.0
4.7104	488.923709017	7.0
4.7206	489.218810375	8.0
4.7309	489.515756534	6.0
4.7411	489.808785196	11.0
4.7514	490.103645702	7.0
4.7616	490.394616225	7.0
4.7718	490.684568091	10.0
4.7821	490.976332566	12.0
4.7923	491.264247904	10.0
4.8026	491.55396312	8.0
4.8128	491.839856234	8.0
4.823	492.124748466	6.0
4.8333	492.411421677	18.0
4.8435	492.694312918	11.0
4.8538	492.978972629	8.0
4.864	493.259876933	10.0
4.8742	493.539797821	11.0
4.8845	493.82146861	11.0
4.8947	494.099423424	7.0
4.905	494.379115849	9.0
4.9152	494.655118399	11.0
4.9254	494.930154692	17.0
4.9357	495.206910351	11.0
4.9459	495.480014878	11.0
4.9562	495.754826695	8.0
4.9664	496.026013025	6.0
4.9766	496.296249959	8.0
4.9869	496.568176257	12.0
4.9971	496.836515134	13.0
5.0074	497.106531509	10.0
5.0176	497.372985662	10.0
5.0278	497.638506986	17.0
5.0381	497.905688193	8.0
5.0483	498.169344582	5.0
5.0586	498.434649195	13.0
5.0688	498.696453746	9.0
5.079	498.957341747	11.0
5.0893	499.219860666	11.0
5.0995	499.478916274	8.0
5.1098	499.739591346	7.0
5.12	499.996827431	11.0
5.1302	500.253162959	13.0
5.1405	500.511100947	7.0
5.1507	500.765636057	5.0
5.161	501.021762372	8.0
5.1712	501.274509711	14.0
5.1814	501.526372207	10.0
5.1917	501.7798092	9.0
5.2019	502.029902695	14.0
5.2122	502.281559629	7.0
5.2224	502.529896549	7.0
5.2326	502.777364067	6.0
5.2429	503.026378607	10.0
5.2531	503.272107993	8.0
5.2634	503.519373536	11.0
5.2736	503.763376998	12.0
5.2838	504.00652623	17.0
5.2941	504.251195489	11.0
5.3043	504.492636919	10.0
5.3146	504.7355877	10.0
5.3248	504.975333324	8.0
5.335	505.214239624	10.0
5.3453	505.454639425	8.0
5.3555	505.691867724	11.0
5.3658	505.930579036	11.0
5.376	506.16614112	6.0
5.3862	506.400878526	5.0
5.3965	506.637083373	10.0
5.4067	506.870172059	9.0
5.417	507.104717879	6.0
5.4272	507.336169426	12.0
5.4374	507.566810685	16.0
5.4477	507.798893779	7.0
5.4579	508.027915088	8.0
5.4682	508.258368105	15.0
5.4784	508.485780843	12.0
5.4886	508.712397433	11.0
5.4989	508.940430697	5.0
5.5091	509.165455605	5.0
5.5194	509.391887237	8.0
5.5296	509.615331643	6.0
5.5398	509.837993793	6.0
5.5501	510.062047897	10.0
5.5603	510.283146141	4.0
5.5706	510.505626561	14.0
5.5808	510.725171882	10.0
5.591	510.943948598	9.0
5.6013	511.164092978	5.0
5.6115	511.381333077	6.0
5.6218	511.599931233	9.0
5.632	511.815645508	5.0
5.6422	512.03060459	5.0
5.6525	512.24690747	4.0
5.6627	512.460356748	10.0
5.673	512.675140387	8.0
5.6832	512.887090467	8.0
5.6934	513.098298531	4.0
5.7037	513.310826945	7.0
5.7139	513.520551553	6.0
5.7242	513.731587236	3.0
5.7344	513.939838806	3.0
5.7446	514.147361309	2.0
5.7549	514.356181121	4.0
5.7651	514.562246053	8.0
5.7754	514.769599183	2.0
5.7856	514.974216781	5.0
5.7958	515.178118035	9.0
5.8061	515.38329396	3.0
5.8163	515.585763077	8.0
5.8266	515.789497913	5.0
5.8368	515.990544953	3.0
5.847	516.190888148	9.0
5.8573	516.392483771	3.0
5.8675	516.591419821	4.0
5.8778	516.791599502	3.0
5.888	516.989138288	1.0
5.8982	517.185985513	2.0
5.9085	517.38406331	4.0
5.9187	517.579527943	6.0
5.929	517.776214507	6.0
5.9392	517.970306259	6.0
5.9494	518.163718517	3.0
5.9597	518.358339875	3.0
5.9699	518.550393667	2.0
5.9802	518.743648068	6.0
5.9904	518.934352937	3.0
6.0006	519.124390168	1.0
6.0109	519.3156154	2.0
6.0211	519.504317871	2.0
6.0314	519.6942	2.0
6.0416	519.881577086	0.0
6.0518	520.068298184	4.0
6.0621	520.256186553	4.0
6.0723	520.441596183	2.0
6.0826	520.628164885	2.0
6.0928	520.812272258	0.0
6.103	520.995735089	1.0
6.1133	521.180344823	1.0
6.1235	521.362519072	3.0
6.1338	521.545832167	2.0
6.144	521.726726882	3.0
6.1542	521.906988304	2.0
6.1645	522.088376614	3.0
6.1747	522.267371938	4.0
6.185	522.447486236	0.0
6.1952	522.625224354	4.0
6.2054	522.80234023	3.0
6.2157	522.980563331	3.0
6.2259	523.156435203	1.0
6.2362	523.333406522	0.0
6.2464	523.508043126	1.0
6.2566	523.682068346	0.0
6.2669	523.85718147	1.0
6.2771	524.029984392	0.0
6.2874	524.203867578	4.0
6.2976	524.375456789	0.0
6.3078	524.546445284	2.0
6.3181	524.7185027	1.0
6.3283	524.888290227	1.0
6.3386	525.059139167	0.0
6.3488	525.227734161	2.0
6.359	525.395738922	0.0
6.3693	525.564793951	0.0
6.3795	525.731618701	3.0
6.3898	525.899486342	1.0
6.4	526.065139369	1.0
6.4102	526.230212462	2.0
6.4205	526.396317496	1.0
6.4307	526.560231169	5.0
6.441	526.725169534	3.0
6.4512	526.887931931	1.0
6.4614	527.050124513	0.0
6.4717	527.213331029	0.0
6.4819	527.374384423	1.0
6.4922	527.536444628	0.0
6.5024	527.696366836	2.0
6.5126	527.855729172	2.0
6.5229	528.016087748	1.0
6.5331	528.174330775	1.0
6.5434	528.333563044	0.0
6.5536	528.490694623	1.0
6.5638	528.647276101	3.0
6.5741	528.804836435	1.0
6.5843	528.960318135	1.0
6.5946	529.116771815	1.0
6.6048	529.271161462	0.0
6.615	529.425010607	0.0
6.6253	529.579821527	2.0
6.6355	529.732590085	0.0
6.6458	529.886313663	0.0
6.656	530.038009224	1.0
6.6662	530.189173715	1.0
6.6765	530.341283198	0.0
6.6867	530.491385959	0.0
6.697	530.642427074	1.0
6.7072	530.791475561	2.0
6.7174	530.940002246	0.0
6.7277	531.089457432	1.0
6.7379	531.236940912	0.0
6.7482	531.385346374	1.0
6.7584	531.531793978	1.0
6.7686	531.677728885	1.0
6.7789	531.824576091	2.0
6.7891	531.969485998	1.0
6.7994	532.115301798	1.0
6.8096	532.259193904	0.0
6.8198	532.40258226	1.0
6.8301	532.546866996	0.0
6.8403	532.689248238	2.0
6.8506	532.832519564	0.0
6.8608	532.973900767	0.0
6.871	533.114787009	4.0
6.8813	533.256553988	1.0
6.8915	533.396450691	0.0
6.9018	533.537221945	2.0
6.912	533.676136058	1.0
6.9222	533.814563848	1.0
6.9325	533.953857006	2.0
6.9427	534.091312524	2.0
6.953	534.229627332	1.0
6.9632	534.366117407	0.0
6.9734	534.502129643	2.0
6.9837	534.638992149	0.0
6.9939	534.77404908	2.0
7.0042	534.909950307	1.0
7.0144	535.044058642	1.0
7.0246	535.177697477	1.0
7.0349	535.312171744	0.0
7.0451	535.444871944	0.0
7.0554	535.578401707	1.0
7.0656	535.710169863	1.0
7.0758	535.841476713	1.0
7.0861	535.973604416	0.0
7.0963	536.103989009	1.0
7.1066	536.23518869	0.0
7.1168	536.364657503	1.0
7.127	536.49367306	1.0
7.1373	536.623495146	0.0
7.1475	536.751604539	1.0
7.1578	536.880514798	0.0
7.168	537.007724392	2.0
7.1782	537.134488639	1.0
7.1885	537.262045341	0.0
7.1987	537.387919237	1.0
7.209	537.514580023	0.0
7.2192	537.639569821	1.0
7.2294	537.764122043	0.0
7.2397	537.889452893	2.0
7.2499	538.0131303	1.0
7.2602	538.137580866	1.0
7.2704	538.260389604	1.0
7.2806	538.3827684	0.0
7.2909	538.505912238	0.0
7.3011	538.627431486	0.0
7.3114	538.749710401	0.0
7.3216	538.870376136	0.0
7.3318	538.990619434	0.0
7.3421	539.111614423	1.0
7.3523	539.23101317	0.0
7.3626	539.351158329	1.0
7.3728	539.469718459	3.0
7.383	539.587863522	0.0
7.3933	539.706747158	1.0
7.4035	539.824062409	1.0
7.4138	539.942111045	2.0
7.424	540.058602311	1.0
7.4342	540.174685753	0.0
7.4445	540.291494881	1.0
7.4547	540.40676299	2.0
7.465	540.522751689	1.0
7.4752	540.637210192	2.0
7.4854	540.751267989	1.0
7.4957	540.866038808	0.0
7.5059	540.979295499	0.0
7.5162	541.093260205	1.0
7.5264	541.205721418	1.0
7.5366	541.317788916	1.0
7.5469	541.430556994	0.0
7.5571	541.541837367	0.0
7.5674	541.653813398	0.0
7.5776	541.764312173	1.0
7.5878	541.874424103	0.0
7.5981	541.985224389	0.0
7.6083	542.094562929	1.0
7.6186	542.204584989	0.0
7.6288	542.31315557	1.0
7.639	542.421346057	0.0
7.6493	542.530212887	0.0
7.6595	542.637643479	3.0
7.6698	542.745745664	0.0
7.68	542.852421698	0.0
7.6902	542.95872427	2.0
7.7005	543.065691384	0.0
7.7107	543.171247322	1.0
7.721	543.277463134	0.0
7.7312	543.38227768	0.0
7.7414	543.486725282	1.0
7.7517	543.59182583	0.0
7.7619	543.695539826	1.0
7.7722	543.799902181	0.0
7.7824	543.902887723	1.0
7.7926	544.005512724	0.0
7.8029	544.108779276	0.0
7.8131	544.210683472	2.0
7.8234	544.313224713	0.0
7.8336	544.414413167	1.0
7.8438	544.515247371	0.0
7.8541	544.616711931	1.0
7.8643	544.716837907	1.0
7.8746	544.817589813	0.0
7.8848	544.917012538	0.0
7.895	545.016087193	0.0
7.9053	545.115781206	0.0
7.9155	545.214159993	1.0
7.9258	545.313153787	0.0
7.936	545.410841594	0.0
7.9462	545.508187406	1.0
7.9565	545.606141767	1.0
7.9667	545.702803853	1.0
7.977	545.800070214	0.0
7.9872	545.896053377	0.0
7.9974	545.991700513	1.0
8.0077	546.087945579	1.0
8.0179	546.182920921	0.0
8.0282	546.278489993	1.0
8.0384	546.372798258	1.0
8.0486	546.466776361	0.0
8.0589	546.561341959	0.0
8.0691	546.654659989	0.0
8.0794	546.748561389	0.0
8.0896	546.841223984	1.0
8.0998	546.933562176	0.0
