TL-DOS Lehrstuhlversuch
detector=R1408202
job_number=2015-10-22-014
irradiation_dose [mSv]=3.0

[BEGIN DATA]
time [sec] 	 temperature [K] 	 photoncount 
0.0	169.740157865	0.0
0.0102	171.076667373	0.0
0.0205	172.421634748	3.0
0.0307	173.748959926	4.0
0.041	175.08468485	2.0
0.0512	176.402888812	2.0
0.0614	177.716577792	2.0
0.0717	179.038580224	1.0
0.0819	180.343241694	0.0
0.0922	181.656159488	0.0
0.1024	182.951855484	3.0
0.1126	184.243113592	1.0
0.1229	185.5425432	2.0
0.1331	186.82492794	2.0
0.1434	188.115428028	3.0
0.1536	189.389000377	1.0
0.1638	190.658210612	2.0
0.1741	191.935452822	0.0
0.1843	193.1959412	1.0
0.1946	194.464406359	0.0
0.2048	195.716232815	0.0
0.215	196.963771639	0.0
0.2253	198.219205295	1.0
0.2355	199.458171185	1.0
0.2458	200.704977655	1.0
0.256	201.935429523	1.0
0.2662	203.161666969	0.0
0.2765	204.395664445	0.0
0.2867	205.613475338	0.0
0.297	206.838992935	1.0
0.3072	208.048435181	0.0
0.3174	209.253734965	0.0
0.3277	210.466662278	0.0
0.3379	211.663679389	0.0
0.3482	212.868271615	0.0
0.3584	214.057062971	0.0
0.3686	215.241782597	0.0
0.3789	216.433999515	0.0
0.3891	217.610577893	0.0
0.3994	218.794602042	0.0
0.4096	219.963095117	0.0
0.4198	221.127585986	0.0
0.4301	222.299446132	0.0
0.4403	223.455934762	0.0
0.4506	224.619742029	0.0
0.4608	225.768283411	0.0
0.471	226.912890923	0.0
0.4813	228.064741883	0.0
0.4915	229.201483793	0.0
0.5018	230.345419375	0.0
0.512	231.474349733	0.0
0.5222	232.59941339	1.0
0.5325	233.731596817	0.0
0.5427	234.848929175	0.0
0.553	235.973332376	0.0
0.5632	237.082986563	0.0
0.5734	238.188840072	1.0
0.5837	239.301691782	0.0
0.5939	240.399946002	0.0
0.6042	241.505150332	0.0
0.6144	242.595857483	0.0
0.6246	243.682828851	0.0
0.6349	244.776678929	0.0
0.6451	245.856180764	0.0
0.6554	246.942514038	0.0
0.6656	248.014597668	0.0
0.6758	249.083009304	0.0
0.6861	250.158182196	0.0
0.6963	251.219251838	0.0
0.7066	252.287036274	0.0
0.7168	253.340814376	0.0
0.727	254.390983181	1.0
0.7373	255.447797796	0.0
0.7475	256.490749969	0.0
0.7578	257.540302284	1.0
0.768	258.576087418	0.0
0.7782	259.608324883	0.0
0.7885	260.647094683	0.0
0.7987	261.672238739	0.0
0.809	262.70387024	0.0
0.8192	263.721969632	0.0
0.8294	264.73658193	0.0
0.8397	265.757615026	0.0
0.8499	266.765255033	1.0
0.8602	267.779271714	0.0
0.8704	268.779987342	0.0
0.8806	269.777275418	0.0
0.8909	270.780874658	0.0
0.9011	271.771309493	2.0
0.9114	272.768012122	0.0
0.9216	273.75164081	0.0
0.9318	274.73190047	0.0
0.9421	275.718363533	0.0
0.9523	276.691886969	4.0
0.9626	277.671571178	2.0
0.9728	278.638404681	0.0
0.983	279.601926681	1.0
0.9933	280.571546161	0.0
1.0035	281.528446956	0.0
1.0138	282.491403331	0.0
1.024	283.441728421	1.0
1.0342	284.388798551	0.0
1.0445	285.341862049	1.0
1.0547	286.28242403	0.0
1.065	287.228938193	0.0
1.0752	288.163036747	0.0
1.0854	289.093935919	0.0
1.0957	290.030726124	0.0
1.1059	290.95522827	2.0
1.1162	291.885580968	0.0
1.1264	292.803730049	1.0
1.1366	293.718734377	0.0
1.1469	294.639529151	0.0
1.1571	295.548245681	0.0
1.1674	296.462712866	0.0
1.1776	297.365184808	0.0
1.1878	298.264565692	0.0
1.1981	299.169638151	0.0
1.2083	300.0628386	1.0
1.2186	300.961691512	1.0
1.2288	301.848753997	0.0
1.239	302.732778204	2.0
1.2493	303.622396803	0.0
1.2595	304.500346103	0.0
1.2698	305.383851353	1.0
1.28	306.255767493	4.0
1.2902	307.124697233	0.0
1.3005	307.999125842	1.0
1.3107	308.862084403	3.0
1.321	309.730504047	0.0
1.3312	310.587532462	0.0
1.3414	311.441625468	1.0
1.3517	312.301123453	1.0
1.3619	313.149347237	1.0
1.3722	314.002938858	0.0
1.3824	314.845333752	1.0
1.3926	315.684843358	1.0
1.4029	316.529665655	1.0
1.4131	317.363406254	2.0
1.4234	318.202423035	1.0
1.4336	319.030434271	3.0
1.4438	319.855609485	3.0
1.4541	320.686006676	2.0
1.4643	321.505511387	4.0
1.4746	322.330202191	2.0
1.4848	323.144075366	3.0
1.495	323.955160943	1.0
1.5053	324.771379334	4.0
1.5155	325.576891231	2.0
1.5258	326.387500669	5.0
1.536	327.187477186	3.0
1.5462	327.984713703	3.0
1.5565	328.786995393	7.0
1.5667	329.578753398	0.0
1.577	330.375521906	6.0
1.5872	331.161839047	1.0
1.5974	331.945462973	2.0
1.6077	332.734045926	3.0
1.6179	333.512284884	2.0
1.6282	334.295448792	2.0
1.6384	335.068339788	7.0
1.6486	335.838583553	4.0
1.6589	336.613701672	4.0
1.6691	337.378652417	8.0
1.6794	338.14844402	8.0
1.6896	338.908138117	12.0
1.6998	339.665230185	7.0
1.7101	340.427113378	10.0
1.7203	341.179002802	12.0
1.7306	341.935650428	12.0
1.7408	342.68237296	12.0
1.751	343.426537892	9.0
1.7613	344.175412142	8.0
1.7715	344.914463264	25.0
1.7818	345.658191342	18.0
1.792	346.392163795	11.0
1.8022	347.123622319	22.0
1.8125	347.85970975	20.0
1.8227	348.58614178	14.0
1.833	349.317170908	14.0
1.8432	350.038610986	18.0
1.8534	350.757580059	14.0
1.8637	351.481099003	26.0
1.8739	352.195127408	13.0
1.8842	352.913674418	24.0
1.8944	353.622796108	23.0
1.9046	354.329488985	30.0
1.9149	355.040654044	29.0
1.9251	355.742490613	27.0
1.9354	356.448768633	26.0
1.9456	357.145782268	36.0
1.9558	357.840408561	26.0
1.9661	358.539430675	48.0
1.9763	359.229283581	49.0
1.9866	359.9235021	39.0
1.9968	360.608614422	49.0
2.007	361.291380164	36.0
2.0173	361.97846667	48.0
2.0275	362.65654053	31.0
2.0378	363.338905462	48.0
2.048	364.012319681	59.0
2.0582	364.683427389	53.0
2.0685	365.358782085	72.0
2.0787	366.025278022	83.0
2.089	366.695991763	59.0
2.0992	367.357907623	68.0
2.1094	368.017556353	72.0
2.1197	368.681379556	73.0
2.1299	369.336495261	83.0
2.1402	369.995756752	94.0
2.1504	370.646370582	90.0
2.1606	371.294755995	75.0
2.1709	371.947244601	87.0
2.1811	372.591174389	108.0
2.1914	373.239179173	119.0
2.2016	373.878683954	124.0
2.2118	374.515998366	121.0
2.2221	375.157345912	140.0
2.2323	375.790280777	128.0
2.2426	376.427221061	140.0
2.2528	377.055806476	156.0
2.263	377.682238922	159.0
2.2733	378.312635637	163.0
2.2835	378.934763316	169.0
2.2938	379.560828022	178.0
2.304	380.178680516	190.0
2.3142	380.794416803	204.0
2.3245	381.41404967	218.0
2.3347	382.025554693	213.0
2.345	382.640929518	232.0
2.3552	383.248232353	233.0
2.3654	383.853455115	219.0
2.3757	384.462507923	225.0
2.3859	385.063571668	265.0
2.3962	385.66843914	267.0
2.4064	386.265372448	308.0
2.4166	386.8602612	291.0
2.4269	387.458914601	267.0
2.4371	388.04971535	337.0
2.4474	388.644254878	310.0
2.4576	389.230995717	354.0
2.4678	389.815726909	334.0
2.4781	390.40415847	311.0
2.4883	390.984871461	334.0
2.4986	391.569259393	341.0
2.5088	392.145981795	394.0
2.519	392.720728865	428.0
2.5293	393.299113122	399.0
2.5395	393.8699106	400.0
2.5498	394.444320271	419.0
2.56	395.011195299	444.0
2.5702	395.576128723	449.0
2.5805	396.144637229	456.0
2.5907	396.7056885	455.0
2.601	397.270290286	451.0
2.6112	397.827486081	495.0
2.6214	398.382773424	483.0
2.6317	398.941574806	498.0
2.6419	399.493046283	515.0
2.6522	400.04800765	480.0
2.6624	400.595689483	477.0
2.6726	401.141495449	525.0
2.6829	401.690755454	567.0
2.6931	402.232810709	539.0
2.7034	402.778296266	537.0
2.7136	403.316626583	548.0
2.7238	403.853113065	522.0
2.7341	404.392994608	551.0
2.7443	404.92579442	536.0
2.7546	405.461965964	552.0
2.7648	405.991104441	506.0
2.775	406.518430566	483.0
2.7853	407.049093782	513.0
2.7955	407.572796186	495.0
2.8058	408.09981275	527.0
2.816	408.619916335	517.0
2.8262	409.138238513	488.0
2.8365	409.659840803	484.0
2.8467	410.174601135	473.0
2.857	410.692619037	462.0
2.8672	411.203841999	468.0
2.8774	411.713313971	451.0
2.8877	412.226010047	402.0
2.8979	412.731980989	421.0
2.9082	413.24115388	416.0
2.9184	413.743647853	405.0
2.9286	414.244420732	372.0
2.9389	414.748362666	353.0
2.9491	415.245694295	332.0
2.9594	415.746173202	386.0
2.9696	416.240087229	322.0
2.9798	416.732309551	314.0
2.9901	417.227646817	330.0
3.0003	417.716486648	317.0
3.0106	418.208420016	271.0
3.0208	418.693900599	252.0
3.031	419.177718363	264.0
3.0413	419.664597882	293.0
3.0515	420.145090909	254.0
3.0618	420.628624653	259.0
3.072	421.10581579	260.0
3.0822	421.5813725	255.0
3.0925	422.059938688	259.0
3.1027	422.53222743	246.0
3.113	423.00750497	236.0
3.1232	423.476548202	262.0
3.1334	423.943984913	234.0
3.1437	424.414379717	247.0
3.1539	424.878604261	262.0
3.1642	425.345766569	261.0
3.1744	425.806801018	249.0
3.1846	426.266256378	265.0
3.1949	426.728619322	289.0
3.2051	427.184917361	256.0
3.2154	427.644103002	264.0
3.2256	428.097265417	256.0
3.2358	428.548875705	318.0
3.2461	429.00334393	281.0
3.2563	429.451850808	301.0
3.2666	429.903195982	279.0
3.2768	430.348620776	296.0
3.287	430.792519944	339.0
3.2973	431.23922825	286.0
3.3075	431.680076998	323.0
3.3178	432.12371558	318.0
3.328	432.561534868	350.0
3.3382	432.997854582	330.0
3.3485	433.436935469	337.0
3.3587	433.870256847	347.0
3.369	434.306320424	341.0
3.3792	434.73666407	380.0
3.3894	435.165533746	363.0
3.3997	435.597117449	410.0
3.4099	436.023039986	375.0
3.4202	436.451657898	364.0
3.4304	436.874653547	392.0
3.4406	437.296200393	393.0
3.4509	437.720414925	418.0
3.4611	438.139064952	433.0
3.4714	438.560364334	417.0
3.4816	438.97613745	448.0
3.4918	439.390486501	435.0
3.5021	439.807457688	414.0
3.5123	440.218959383	447.0
3.5226	440.633065195	414.0
3.5328	441.041739101	451.0
3.543	441.449013257	476.0
3.5533	441.858864777	487.0
3.5635	442.263340196	417.0
3.5738	442.670375266	483.0
3.584	443.072071179	507.0
3.5942	443.472391243	479.0
3.6045	443.875244663	498.0
3.6147	444.272813776	468.0
3.625	444.672898836	486.0
3.6352	445.067735904	523.0
3.6454	445.461220614	491.0
3.6557	445.857195424	495.0
3.6659	446.247976155	488.0
3.6762	446.641229875	469.0
3.6864	447.029325209	450.0
3.6966	447.416091278	458.0
3.7069	447.805304928	461.0
3.7171	448.189413187	441.0
3.7274	448.575952209	467.0
3.7376	448.957420924	474.0
3.7478	449.33758307	459.0
3.7581	449.720151005	478.0
3.7683	450.097700724	436.0
3.7786	450.477639699	470.0
3.7888	450.852594942	448.0
3.799	451.226265925	420.0
3.8093	451.60230162	469.0
3.8195	451.973404782	441.0
3.8298	452.346856406	437.0
3.84	452.715409392	460.0
3.8502	453.082700047	423.0
3.8605	453.452315038	471.0
3.8707	453.817081716	440.0
3.881	454.184156758	432.0
3.8912	454.546416805	438.0
3.9014	454.907436074	427.0
3.9117	455.270739992	403.0
3.9219	455.629278381	444.0
3.9322	455.990085719	410.0
3.9424	456.346160276	416.0
3.9526	456.701015243	414.0
3.9629	457.058115847	410.0
3.9731	457.410532293	350.0
3.9834	457.765178946	408.0
3.9936	458.11517363	378.0
4.0038	458.463969546	394.0
4.0141	458.814972757	377.0
4.0243	459.161371791	386.0
4.0346	459.509962951	400.0
4.0448	459.853981573	398.0
4.055	460.196821897	369.0
4.0653	460.541831826	402.0
4.0755	460.882316193	372.0
4.0858	461.224955256	367.0
4.096	461.563099856	387.0
4.1062	461.900086277	375.0
4.1165	462.239205257	360.0
4.1267	462.573875948	414.0
4.137	462.910664545	391.0
4.1472	463.24303542	370.0
4.1574	463.574267892	370.0
4.1677	463.90759651	382.0
4.1779	464.236552793	406.0
4.1882	464.567590818	384.0
4.1984	464.894286553	403.0
4.2086	465.219863323	399.0
4.2189	465.547500448	378.0
4.2291	465.870839894	384.0
4.2394	466.196225537	372.0
4.2496	466.517343034	358.0
4.2598	466.83736067	373.0
4.2701	467.159403483	387.0
4.2803	467.477221998	380.0
4.2906	467.797051772	358.0
4.3008	468.112686277	368.0
4.311	468.427239702	341.0
4.3213	468.743783723	385.0
4.3315	469.056175576	411.0
4.3418	469.370544345	384.0
4.352	469.680789479	388.0
4.3622	469.989971992	389.0
4.3725	470.301111112	356.0
4.3827	470.608168961	375.0
4.393	470.917169972	360.0
4.4032	471.222117756	399.0
4.4134	471.526021064	409.0
4.4237	471.831847571	355.0
4.4339	472.133662492	376.0
4.4442	472.437387396	365.0
4.4544	472.737128283	387.0
4.4646	473.035842526	378.0
4.4749	473.336447131	392.0
4.4851	473.633108646	380.0
4.4954	473.931647533	364.0
4.5056	474.226270427	374.0
4.5158	474.519884208	359.0
4.5261	474.815356072	357.0
4.5363	475.106952175	378.0
4.5466	475.400393594	403.0
4.5568	475.689985884	391.0
4.567	475.978586291	390.0
4.5773	476.269013056	370.0
4.5875	476.555630237	381.0
4.5978	476.844061225	355.0
4.608	477.128708808	375.0
4.6182	477.412381444	369.0
4.6285	477.697849253	373.0
4.6387	477.979572525	367.0
4.649	478.263078634	348.0
4.6592	478.542865939	360.0
4.6694	478.821694943	349.0
4.6797	479.102288469	356.0
4.6899	479.379201395	319.0
4.7002	479.657866716	324.0
4.7104	479.932876731	356.0
4.7206	480.206944808	337.0
4.7309	480.482747277	358.0
4.7411	480.754931992	378.0
4.7514	481.028839181	363.0
4.7616	481.299153476	343.0
4.7718	481.568541917	353.0
4.7821	481.839635136	336.0
4.7923	482.107172373	349.0
4.8026	482.376402673	335.0
4.8128	482.642101427	365.0
4.823	482.906890136	343.0
4.8333	483.173354513	322.0
4.8435	483.436323627	346.0
4.8538	483.700956894	311.0
4.864	483.962118916	354.0
4.8742	484.222386431	356.0
4.8845	484.484301004	370.0
4.8947	484.742779993	320.0
4.905	485.002894721	305.0
4.9152	485.259597474	342.0
4.9254	485.515420994	336.0
4.9357	485.772863449	316.0
4.9459	486.026928981	352.0
4.9562	486.282602323	344.0
4.9664	486.534921948	331.0
4.9766	486.786377352	342.0
4.9869	487.039424049	311.0
4.9971	487.289151483	326.0
5.0074	487.540459274	331.0
5.0176	487.788470611	352.0
5.0278	488.035632485	326.0
5.0381	488.28435848	325.0
5.0483	488.529821888	324.0
5.0586	488.776838668	316.0
5.0688	489.020615281	314.0
5.079	489.263556935	336.0
5.0893	489.508036003	366.0
5.0995	489.749308191	335.0
5.1098	489.992107229	309.0
5.12	490.231721424	286.0
5.1302	490.470514917	329.0
5.1405	490.710819573	342.0
5.1507	490.947972106	299.0
5.161	491.186625417	324.0
5.1712	491.422148267	294.0
5.1814	491.656864428	309.0
5.1917	491.893065949	324.0
5.2019	492.126169168	339.0
5.2122	492.360747541	293.0
5.2224	492.592248904	333.0
5.2326	492.822957352	299.0
5.2429	493.055125797	283.0
5.2531	493.284248844	307.0
5.2634	493.514821857	339.0
5.2736	493.742370399	310.0
5.2838	493.969139564	333.0
5.2941	494.197343798	309.0
5.3043	494.422554633	324.0
5.3146	494.649190676	321.0
5.3248	494.872853889	327.0
5.335	495.095751034	289.0
5.3453	495.320058745	301.0
5.3555	495.541424167	323.0
5.3658	495.764190463	326.0
5.376	495.98403469	331.0
5.3862	496.203125928	313.0
5.3965	496.423603647	328.0
5.4067	496.641189317	309.0
5.417	496.860151939	276.0
5.4272	497.076242387	348.0
5.4374	497.291592704	332.0
5.4477	497.508305827	342.0
5.4579	497.722176282	377.0
5.4682	497.93740018	328.0
5.4784	498.149800943	300.0
5.4886	498.361474213	332.0
5.4989	498.57448702	315.0
5.5091	498.784705697	306.0
5.5194	498.996254706	304.0
5.5296	499.205028786	321.0
5.5398	499.413087794	300.0
5.5501	499.622463467	313.0
5.5603	499.829092718	329.0
5.5706	500.037029587	331.0
5.5808	500.242238908	331.0
5.591	500.446745366	320.0
5.6013	500.652546007	325.0
5.6115	500.855647122	310.0
5.6218	501.060033527	330.0
5.632	501.261738956	349.0
5.6422	501.462753523	357.0
5.6525	501.665040176	306.0
5.6627	501.864673396	331.0
5.673	502.06556996	299.0
5.6832	502.263831324	282.0
5.6934	502.461413624	272.0
5.7037	502.660246289	353.0
5.7139	502.856470827	259.0
5.7242	503.053937138	307.0
5.7344	503.248813245	309.0
5.7446	503.443021882	282.0
5.7549	503.638459535	285.0
5.7651	503.831333594	344.0
5.7754	504.025428222	301.0
5.7856	504.216976875	300.0
5.7958	504.407869453	282.0
5.8061	504.599970062	269.0
5.8163	504.78955085	311.0
5.8266	504.980331367	259.0
5.8368	505.16860938	273.0
5.847	505.356242521	294.0
5.8573	505.545063065	291.0
5.8675	505.731406814	270.0
5.8778	505.918929807	263.0
5.888	506.103993025	237.0
5.8982	506.288422383	260.0
5.9085	506.474018869	233.0
5.9187	506.657180851	249.0
5.929	506.841501941	225.0
5.9392	507.023405256	215.0
5.9494	507.204685533	239.0
5.9597	507.387113011	223.0
5.9699	507.567147553	245.0
5.9802	507.748321412	247.0
5.9904	507.927118778	224.0
6.0006	508.105303746	227.0
6.0109	508.284616326	218.0
6.0211	508.461576828	194.0
6.0314	508.639657194	236.0
6.0416	508.815401645	220.0
6.0518	508.990544154	235.0
6.0621	509.166795021	197.0
6.0723	509.340733972	198.0
6.0826	509.515773665	182.0
6.0928	509.688517329	204.0
6.103	509.860669328	173.0
6.1133	510.033910761	183.0
6.1235	510.204879753	177.0
6.1338	510.376930692	178.0
6.144	510.546724806	156.0
6.1542	510.715937358	191.0
6.1645	510.886220742	169.0
6.1747	511.054270486	159.0
6.185	511.223383703	167.0
6.1952	511.39027863	156.0
6.2054	511.556601925	166.0
6.2157	511.723977767	140.0
6.2259	511.889158109	127.0
6.2362	512.055383765	156.0
6.2464	512.219429007	157.0
6.2566	512.382912378	139.0
6.2669	512.547430325	127.0
6.2771	512.709790258	137.0
6.2874	512.873177658	131.0
6.2976	513.034421873	116.0
6.3078	513.195113811	114.0
6.3181	513.35682266	128.0
6.3283	513.516410342	135.0
6.3386	513.677007948	121.0
6.3488	513.835498963	113.0
6.359	513.993447131	109.0
6.3693	514.152394846	90.0
6.3795	514.309257613	84.0
6.3898	514.467113059	102.0
6.4	514.622897885	93.0
6.4102	514.778149132	95.0
6.4205	514.934382859	82.0
6.4307	515.088567238	99.0
6.441	515.243727347	77.0
6.4512	515.39685219	83.0
6.4614	515.549452565	75.0
6.4717	515.703018645	79.0
6.4819	515.854570369	80.0
6.4922	516.007081161	57.0
6.5024	516.157591441	68.0
6.5126	516.307586207	73.0
6.5229	516.458530189	62.0
6.5331	516.607494209	63.0
6.5434	516.757400923	56.0
6.5536	516.905341281	58.0
6.5638	517.052774928	59.0
6.5741	517.201141584	50.0
6.5843	517.347562085	50.0
6.5946	517.494909183	50.0
6.6048	517.640323501	51.0
6.615	517.78523976	54.0
6.6253	517.931073096	60.0
6.6355	518.074993508	48.0
6.6458	518.219824696	45.0
6.656	518.362756104	49.0
6.6662	518.505197959	35.0
6.6765	518.648541231	35.0
6.6867	518.790004243	37.0
6.697	518.932362478	46.0
6.7072	519.072853373	35.0
6.7174	519.212863072	34.0
6.7277	519.353758798	28.0
6.7379	519.492806368	28.0
6.7482	519.632733876	32.0
6.7584	519.770825928	29.0
6.7686	519.908445001	36.0
6.7789	520.046934972	26.0
6.7891	520.183608343	21.0
6.7994	520.321146628	32.0
6.8096	520.456880797	23.0
6.8198	520.592150062	28.0
6.8301	520.728275355	25.0
6.8403	520.862615067	18.0
6.8506	520.997804924	14.0
6.8608	521.13122147	23.0
6.871	521.26418105	17.0
6.8813	521.397982042	26.0
6.8915	521.53002794	20.0
6.9018	521.662909468	15.0
6.912	521.794047964	15.0
6.9222	521.924737296	20.0
6.9325	522.056253674	19.0
6.9427	522.186044925	14.0
6.953	522.316657538	14.0
6.9632	522.44555688	18.0
6.9734	522.574014729	20.0
6.9837	522.7032855	20.0
6.9939	522.830860603	15.0
7.0042	522.959243042	13.0
7.0144	523.085941463	14.0
7.0246	523.21220593	8.0
7.0349	523.339269439	11.0
7.0451	523.464666232	17.0
7.0554	523.590856577	4.0
7.0656	523.715391658	10.0
7.0758	523.839500194	14.0
7.0861	523.96439413	10.0
7.0963	524.087649807	9.0
7.1066	524.211685487	15.0
7.1168	524.334094167	11.0
7.127	524.456083584	7.0
7.1373	524.57884499	8.0
7.1475	524.699996112	6.0
7.1578	524.821913916	12.0
7.168	524.942232502	10.0
7.1782	525.062138984	11.0
7.1885	525.182804274	12.0
7.1987	525.301886773	2.0
7.209	525.421722866	11.0
7.2192	525.539987045	5.0
7.2294	525.657846157	9.0
7.2397	525.776451121	9.0
7.2499	525.89350032	10.0
7.2602	526.011290244	4.0
7.2704	526.127535096	5.0
7.2806	526.243381797	3.0
7.2909	526.359961613	11.0
7.3011	526.47501223	10.0
7.3114	526.590790925	11.0
7.3216	526.705050927	4.0
7.3318	526.818919578	6.0
7.3421	526.933508827	3.0
7.3523	527.046594987	6.0
7.3626	527.160396792	5.0
7.3728	527.272705837	4.0
7.383	527.384630213	3.0
7.3933	527.497262882	5.0
7.4035	527.608418127	3.0
7.4138	527.720276798	4.0
7.424	527.830668198	3.0
7.4342	527.940681496	5.0
7.4445	528.051390993	9.0
7.4547	528.160648293	3.0
7.465	528.270597009	4.0
7.4752	528.379103506	3.0
7.4854	528.487238358	6.0
7.4957	528.596057522	5.0
7.5059	528.703449284	4.0
7.5162	528.811520656	7.0
7.5264	528.918174435	2.0
7.5366	529.024462914	2.0
7.5469	529.131424021	5.0
7.5571	529.236982099	9.0
7.5674	529.343208182	3.0
7.5776	529.448040878	7.0
7.5878	529.552514511	3.0
7.5981	529.657649287	1.0
7.6083	529.76140499	1.0
7.6186	529.865817293	4.0
7.6288	529.968859999	2.0
7.639	530.071549774	1.0
7.6493	530.174889403	0.0
7.6595	530.276873506	3.0
7.6698	530.379502998	6.0
7.68	530.480786279	5.0
7.6902	530.581722654	8.0
7.7005	530.683297788	0.0
7.7107	530.783540541	7.0
7.721	530.884417663	5.0
7.7312	530.98397156	5.0
7.7414	531.083184475	7.0
7.7517	531.183025242	4.0
7.7619	531.281556378	3.0
7.7722	531.380711051	4.0
7.7824	531.478565093	3.0
7.7926	531.576083975	6.0
7.8029	531.674219988	1.0
