TL-DOS Lehrstuhlversuch
detector=R1407204
job_number=2015-10-30-003
irradiation_dose [mSv]=0.2

[BEGIN DATA]
time [sec] 	 temperature [K] 	 photoncount 
0.0	70.7584853935	0.0
0.0102	73.3391344392	0.0
0.0205	75.9308116088	0.0
0.0307	78.4832703569	1.0
0.041	81.0466367606	2.0
0.0512	83.571213154	0.0
0.0614	86.0820300596	3.0
0.0717	88.6035766689	0.0
0.0819	91.0869661038	1.0
0.0922	93.5809680341	0.0
0.1024	96.0372296085	3.0
0.1126	98.4801040256	0.0
0.1229	100.933417802	1.0
0.1331	103.349606933	0.0
0.1434	105.776121387	0.0
0.1536	108.165916735	1.0
0.1638	110.542687181	1.0
0.1741	112.929614499	1.0
0.1843	115.280421761	0.0
0.1946	117.641274943	1.0
0.2048	119.966402636	0.0
0.215	122.278857879	0.0
0.2253	124.60119515	2.0
0.2355	126.88838977	0.0
0.2458	129.18535847	2.0
0.256	131.447568408	0.0
0.2662	133.697448812	0.0
0.2765	135.956943837	0.0
0.2867	138.182247169	0.0
0.297	140.417060093	0.0
0.3072	142.618054826	0.0
0.3174	144.807053661	0.0
0.3277	147.005406946	0.0
0.3379	149.170493762	0.0
0.3482	151.344832842	0.0
0.3584	153.486268847	0.0
0.3686	155.616033563	0.0
0.3789	157.754899597	1.0
0.3891	159.861399352	0.0
0.3994	161.976901004	0.0
0.4096	164.060389936	0.0
0.4198	166.132523403	1.0
0.4301	168.213511907	0.0
0.4403	170.26300996	0.0
0.4506	172.32126632	0.0
0.4608	174.348376222	1.0
0.471	176.364437936	1.0
0.4813	178.389115071	0.0
0.4915	180.383153884	0.0
0.5018	182.385714005	1.0
0.512	184.357970488	0.0
0.5222	186.319477746	0.0
0.5325	188.289367293	0.0
0.5427	190.229447588	0.0
0.553	192.177818605	0.0
0.5632	194.096705998	0.0
0.5734	196.00513504	0.0
0.5837	197.921719546	1.0
0.5939	199.809301435	1.0
0.6042	201.704949701	0.0
0.6144	203.571912167	0.0
0.6246	205.428699283	0.0
0.6349	207.293421178	0.0
0.6451	209.129925265	0.0
0.6554	210.974277453	0.0
0.6656	212.790720076	0.0
0.6758	214.597262693	1.0
0.6861	216.411525375	0.0
0.6963	218.198333819	0.0
0.7066	219.992777996	0.0
0.7168	221.760067839	0.0
0.727	223.517725569	0.0
0.7373	225.282894459	0.0
0.7475	227.021352022	0.0
0.7578	228.767238694	0.0
0.768	230.486705826	0.0
0.7782	232.196801491	0.0
0.7885	233.914205063	1.0
0.7987	235.605620114	0.0
0.809	237.304263244	0.0
0.8192	238.977201744	1.0
0.8294	240.641022368	0.0
0.8397	242.311953148	0.0
0.8499	243.957598654	1.0
0.8602	245.610276647	0.0
0.8704	247.237945576	1.0
0.8806	248.856743357	0.0
0.8909	250.482458895	0.0
0.9011	252.083573376	1.0
0.9114	253.691530046	0.0
0.9216	255.275154394	0.0
0.9318	256.850147647	0.0
0.9421	258.431871463	1.0
0.9523	259.989659924	3.0
0.9626	261.554105425	0.0
0.9728	263.094877036	1.0
0.983	264.627251107	0.0
0.9933	266.166173613	0.0
1.0035	267.681808453	0.0
1.0138	269.203920195	0.0
1.024	270.702998658	0.0
1.0342	272.19390682	2.0
1.0445	273.691186216	0.0
1.0547	275.165808108	0.0
1.065	276.646731637	0.0
1.0752	278.105245167	0.0
1.0854	279.555809483	1.0
1.0957	281.012572628	1.0
1.1059	282.447291379	0.0
1.1162	283.888141245	0.0
1.1264	285.307187525	2.0
1.1366	286.718499696	0.0
1.1469	288.135842956	0.0
1.1571	289.531738342	1.0
1.1674	290.933598935	1.0
1.1776	292.314245946	0.0
1.1878	293.687368131	0.0
1.1981	295.066358205	0.0
1.2083	296.424480782	0.0
1.2186	297.788407149	0.0
1.2288	299.13169397	0.0
1.239	300.467659588	0.0
1.2493	301.809334309	0.0
1.2595	303.130706207	1.0
1.2698	304.457724845	0.0
1.28	305.764662441	0.0
1.2902	307.064476944	1.0
1.3005	308.369846064	0.0
1.3107	309.655461752	1.0
1.321	310.94657138	0.0
1.3312	312.218143358	1.0
1.3414	313.482784993	1.0
1.3517	314.752830937	2.0
1.3619	316.003657976	0.0
1.3722	317.259830288	0.0
1.3824	318.496993638	1.0
1.3926	319.72741418	0.0
1.4029	320.963092791	0.0
1.4131	322.180072558	1.0
1.4234	323.402252957	1.0
1.4336	324.605938773	0.0
1.4438	325.803064241	0.0
1.4541	327.005305495	1.0
1.4643	328.189353895	1.0
1.4746	329.378462198	0.0
1.4848	330.54957638	1.0
1.495	331.714307737	1.0
1.5053	332.884016446	1.0
1.5155	334.036024599	2.0
1.5258	335.192955734	1.0
1.536	336.332379667	0.0
1.5462	337.465593494	2.0
1.5565	338.603649987	5.0
1.5667	339.724484899	1.0
1.577	340.850109577	0.0
1.5872	341.958700797	1.0
1.5974	343.061249956	0.0
1.6077	344.168510738	4.0
1.6179	345.259015954	3.0
1.6282	346.354181326	5.0
1.6384	347.432774164	2.0
1.6486	348.505488437	2.0
1.6589	349.582786839	4.0
1.6691	350.643783078	1.0
1.6794	351.709313369	3.0
1.6896	352.758719578	3.0
1.6998	353.802406296	4.0
1.7101	354.850553096	2.0
1.7203	355.882838868	4.0
1.7306	356.919536002	6.0
1.7408	357.940545369	4.0
1.751	358.955990015	2.0
1.7613	359.975774053	6.0
1.7715	360.980126261	5.0
1.7818	361.98877046	5.0
1.792	362.982151402	6.0
1.8022	363.970118204	6.0
1.8125	364.962306974	12.0
1.8227	365.939481498	8.0
1.833	366.920831872	12.0
1.8432	367.887332012	7.0
1.8534	368.848564517	6.0
1.8637	369.813904745	10.0
1.8739	370.764637011	10.0
1.8842	371.719432129	11.0
1.8944	372.659778858	9.0
1.9046	373.595000495	12.0
1.9149	374.534218699	11.0
1.9251	375.459224233	4.0
1.9354	376.388182677	15.0
1.9456	377.303083705	17.0
1.9558	378.212998325	12.0
1.9661	379.126801366	13.0
1.9763	380.02677633	15.0
1.9866	380.930597239	18.0
1.9968	381.820741124	18.0
2.007	382.706033533	22.0
2.0173	383.595109143	16.0
2.0275	384.470730862	24.0
2.0378	385.350094455	19.0
2.048	386.216151124	20.0
2.0582	387.077487596	21.0
2.0685	387.942504897	28.0
2.0787	388.794432368	18.0
2.089	389.650000458	28.0
2.0992	390.492621709	41.0
2.1094	391.330650491	18.0
2.1197	392.172260498	29.0
2.1299	393.001134885	39.0
2.1402	393.833551377	27.0
2.1504	394.653371369	38.0
2.1606	395.468723165	35.0
2.1709	396.287559278	48.0
2.1811	397.094004396	32.0
2.1914	397.903895769	32.0
2.2016	398.701531503	24.0
2.2118	399.49481995	31.0
2.2221	400.291498428	34.0
2.2323	401.076121211	44.0
2.2426	401.864096994	48.0
2.2528	402.640148774	45.0
2.263	403.411970904	29.0
2.2733	404.187091331	34.0
2.2835	404.950482289	35.0
2.2938	405.717135516	38.0
2.304	406.472187401	39.0
2.3142	407.223124091	40.0
2.3245	407.977269827	41.0
2.3347	408.720003492	34.0
2.345	409.465911148	37.0
2.3552	410.200531395	31.0
2.3654	410.931147803	34.0
2.3757	411.66488642	33.0
2.3859	412.387521776	33.0
2.3962	413.113245236	25.0
2.4064	413.827986722	27.0
2.4166	414.538832713	27.0
2.4269	415.252716427	36.0
2.4371	415.955797332	29.0
2.4474	416.661882778	20.0
2.4576	417.357283422	30.0
2.4678	418.048893981	26.0
2.4781	418.743460064	29.0
2.4883	419.427515661	28.0
2.4986	420.114494495	21.0
2.5088	420.791077657	25.0
2.519	421.463973295	24.0
2.5293	422.139744479	30.0
2.5395	422.805289591	28.0
2.5498	423.473678837	23.0
2.56	424.131953718	29.0
2.5702	424.786640858	24.0
2.5805	425.444125732	20.0
2.5907	426.091661251	20.0
2.601	426.741963942	24.0
2.6112	427.382425961	14.0
2.6214	428.019397323	32.0
2.6317	428.659090714	25.0
2.6419	429.289103977	20.0
2.6522	429.921809534	29.0
2.6624	430.544940706	29.0
2.6726	431.164675678	29.0
2.6829	431.787059021	26.0
2.6931	432.40002418	34.0
2.7034	433.015608779	30.0
2.7136	433.621878075	31.0
2.7238	434.224843073	37.0
2.7341	434.830384776	39.0
2.7443	435.42676315	32.0
2.7546	436.025690083	22.0
2.7648	436.615553785	39.0
2.775	437.202202602	38.0
2.7853	437.791358399	40.0
2.7955	438.371598826	41.0
2.8058	438.954318848	43.0
2.816	439.528220889	40.0
2.8262	440.09899504	52.0
2.8365	440.672208332	40.0
2.8467	441.236747503	45.0
2.857	441.803699171	41.0
2.8672	442.362071473	34.0
2.8774	442.917400524	40.0
2.8877	443.475102714	42.0
2.8979	444.024365504	47.0
2.9082	444.575975509	42.0
2.9184	445.119238305	32.0
2.9286	445.6595402	38.0
2.9389	446.202151017	46.0
2.9491	446.736550803	52.0
2.9594	447.273234289	43.0
2.9696	447.80179644	35.0
2.9798	448.327477813	44.0
2.9901	448.855405628	41.0
3.0003	449.375344602	41.0
3.0106	449.89750548	41.0
3.0208	450.411764784	41.0
3.031	450.923221265	42.0
3.0413	451.436863398	31.0
3.0515	451.942732869	43.0
3.0618	452.450764118	39.0
3.072	452.951107611	39.0
3.0822	453.448724123	47.0
3.0925	453.948467145	40.0
3.1027	454.440647832	38.0
3.113	454.934931799	45.0
3.1232	455.42173604	30.0
3.1334	455.905887092	32.0
3.1437	456.392107111	35.0
3.1539	456.870969431	38.0
3.1642	457.351878117	30.0
3.1744	457.825509477	28.0
3.1846	458.296559443	39.0
3.1949	458.769622391	43.0
3.2051	459.235526738	33.0
3.2154	459.703422076	29.0
3.2256	460.164237012	40.0
3.2358	460.622540408	42.0
3.2461	461.082802313	36.0
3.2563	461.536099328	33.0
3.2666	461.991333459	41.0
3.2768	462.439678783	43.0
3.287	462.885580528	29.0
3.2973	463.333387786	34.0
3.3075	463.774418623	30.0
3.3178	464.217334158	28.0
3.328	464.653547296	35.0
3.3382	465.087382978	38.0
3.3485	465.52307261	31.0
3.3587	465.952169191	40.0
3.369	466.38309947	33.0
3.3792	466.807508718	39.0
3.3894	467.229604844	34.0
3.3997	467.653504753	44.0
3.4099	468.070990017	19.0
3.4202	468.49025936	31.0
3.4304	468.903184131	36.0
3.4406	469.313858372	32.0
3.4509	469.726287585	37.0
3.4611	470.132475735	31.0
3.4714	470.540399685	21.0
3.4816	470.942150747	29.0
3.4918	471.341712179	32.0
3.5021	471.742981094	21.0
3.5123	472.138177827	32.0
3.5226	472.53506339	27.0
3.5328	472.925943104	25.0
3.543	473.314692438	34.0
3.5533	473.70510305	33.0
3.5635	474.089605794	30.0
3.5738	474.475751668	36.0
3.584	474.85605421	33.0
3.5942	475.234284021	30.0
3.6045	475.614130156	28.0
3.6147	475.988228288	33.0
3.625	476.363925089	37.0
3.6352	476.733936677	34.0
3.6454	477.101931622	41.0
3.6557	477.471499153	31.0
3.6659	477.835474222	29.0
3.6762	478.2010047	34.0
3.6864	478.561003806	27.0
3.6966	478.91904084	21.0
3.7069	479.278607906	26.0
3.7171	479.632733841	24.0
3.7274	479.988373096	27.0
3.7376	480.338630657	30.0
3.7478	480.686979239	28.0
3.7581	481.036816451	29.0
3.7683	481.38135977	19.0
3.7786	481.727375457	25.0
3.7888	482.068155079	32.0
3.799	482.407077379	27.0
3.8093	482.747448026	32.0
3.8195	483.082668032	24.0
3.8298	483.419320564	24.0
3.84	483.75087872	32.0
3.8502	484.080629811	26.0
3.8605	484.411790058	23.0
3.8707	484.73793904	24.0
3.881	485.065481784	29.0
3.8912	485.388068004	20.0
3.9014	485.708896059	23.0
3.9117	486.031095139	32.0
3.9219	486.348418557	28.0
3.9322	486.667098022	21.0
3.9424	486.980955087	17.0
3.9526	487.293101563	25.0
3.9629	487.606581963	22.0
3.9731	487.915318637	33.0
3.9834	488.225374664	34.0
3.9936	488.530738784	33.0
4.0038	488.834438603	20.0
4.0141	489.139436251	27.0
4.0243	489.439818537	24.0
4.0346	489.741484475	22.0
4.0448	490.038585468	18.0
4.055	490.334067196	28.0
4.0653	490.630811634	18.0
4.0755	490.923065602	33.0
4.0858	491.216568485	27.0
4.096	491.505629951	26.0
4.1062	491.793115969	26.0
4.1165	492.081830528	32.0
4.1267	492.366176128	27.0
4.137	492.651736849	15.0
4.1472	492.932976337	30.0
4.1574	493.212683008	31.0
4.1677	493.493584976	31.0
4.1779	493.770236209	25.0
4.1882	494.048069681	32.0
4.1984	494.321698853	20.0
4.2086	494.593836686	27.0
4.2189	494.867137471	18.0
4.2291	495.136302545	24.0
4.2394	495.406617868	22.0
4.2496	495.672842658	32.0
4.2598	495.937616465	16.0
4.2701	496.203521754	22.0
4.2803	496.465403245	23.0
4.2906	496.728403858	25.0
4.3008	496.987424628	26.0
4.311	497.245033678	32.0
4.3213	497.503743593	22.0
4.3315	497.758538594	17.0
4.3418	498.014422433	20.0
4.352	498.266434123	30.0
4.3622	498.517072295	21.0
4.3725	498.768781543	23.0
4.3827	499.016681812	26.0
4.393	499.265641457	28.0
4.4032	499.510833733	26.0
4.4134	499.754689657	20.0
4.4237	499.999587674	24.0
4.4339	500.240779784	20.0
4.4442	500.483002602	22.0
4.4544	500.721559996	30.0
4.4646	500.958817201	19.0
4.4749	501.197088298	17.0
4.4851	501.43175377	24.0
4.4954	501.66742206	22.0
4.5056	501.899524111	31.0
4.5158	502.130361156	29.0
4.5261	502.362184658	28.0
4.5363	502.590500103	19.0
4.5466	502.819791229	18.0
4.5568	503.045612619	22.0
4.567	503.270203234	32.0
4.5773	503.495753612	25.0
4.5875	503.717890861	26.0
4.5978	503.940977389	34.0
4.608	504.160688072	19.0
4.6182	504.379201283	19.0
4.6285	504.598648288	26.0
4.6387	504.814774522	15.0
4.649	505.031824348	27.0
4.6592	505.245589678	19.0
4.6694	505.458189942	23.0
4.6797	505.671698729	25.0
4.6899	505.881976606	18.0
4.7002	506.093153082	19.0
4.7104	506.301133941	23.0
4.7206	506.50798126	15.0
4.7309	506.715712518	16.0
4.7411	506.920300293	15.0
4.7514	507.125762353	21.0
4.7616	507.328115268	16.0
4.7718	507.529365316	16.0
4.7821	507.731475384	15.0
4.7923	507.930527032	15.0
4.8026	508.130429305	16.0
4.8128	508.327306568	15.0
4.823	508.523110807	17.0
4.8333	508.719751794	18.0
4.8435	508.913417122	15.0
4.8538	509.107910057	15.0
4.864	509.299459838	12.0
4.8742	509.489965632	17.0
4.8845	509.681285531	14.0
4.8947	509.869710291	11.0
4.905	510.058940265	15.0
4.9152	510.245306725	14.0
4.9254	510.430657448	15.0
4.9357	510.616800247	7.0
4.9459	510.80012625	24.0
4.9562	510.984235677	12.0
4.9664	511.165559077	10.0
4.9766	511.345894225	11.0
4.9869	511.527000016	14.0
4.9971	511.705365233	15.0
5.0074	511.884492675	14.0
5.0176	512.06090948	8.0
5.0278	512.236364774	9.0
5.0381	512.412569858	3.0
5.0483	512.586108528	7.0
5.0586	512.760388797	2.0
5.0688	512.932031778	12.0
5.079	513.102739267	9.0
5.0893	513.274176257	11.0
5.0995	513.443018985	11.0
5.1098	513.612583245	11.0
5.12	513.779581582	6.0
5.1302	513.945669741	11.0
5.1405	514.112467661	7.0
5.1507	514.27674152	3.0
5.161	514.441717385	8.0
5.1712	514.604196761	13.0
5.1814	514.76579059	10.0
5.1917	514.928074972	9.0
5.2019	515.087903594	5.0
5.2122	515.248415227	6.0
5.2224	515.406497925	9.0
5.2326	515.563719039	4.0
5.2429	515.72161202	7.0
5.2531	515.877115693	8.0
5.2634	516.033283895	6.0
5.2736	516.187088889	3.0
5.2838	516.340055613	7.0
5.2941	516.493676023	0.0
5.3043	516.644971781	6.0
5.3146	516.796914084	4.0
5.3248	516.946557129	4.0
5.335	517.095384586	3.0
5.3453	517.244848042	4.0
5.3555	517.392049749	8.0
5.3658	517.539880507	5.0
5.376	517.685474224	4.0
5.3862	517.830274423	6.0
5.3965	517.97569341	4.0
5.4067	518.118911852	4.0
5.417	518.262742323	3.0
5.4272	518.404396286	6.0
5.4374	518.545278204	3.0
5.4477	518.686762166	2.0
5.4579	518.82610513	3.0
5.4682	518.96604356	0.0
5.4784	519.103864379	2.0
5.4886	519.240934045	1.0
5.4989	519.378589463	2.0
5.5091	519.514161818	2.0
5.5194	519.650313526	3.0
5.5296	519.784404926	0.0
5.5398	519.917765499	3.0
5.5501	520.051695973	2.0
5.5603	520.183599752	2.0
5.5706	520.316067207	1.0
5.5808	520.446530105	2.0
5.591	520.576281952	2.0
5.6013	520.706588279	2.0
5.6115	520.834922753	3.0
5.6218	520.96380565	1.0
5.632	521.090738233	4.0
5.6422	521.216979007	1.0
5.6525	521.343759256	0.0
5.6627	521.46862101	1.0
5.673	521.594016347	2.0
5.6832	521.717514146	0.0
5.6934	521.840338855	2.0
5.7037	521.963688442	3.0
5.7139	522.085171447	2.0
5.7242	522.207173597	0.0
5.7344	522.327329556	0.0
5.7446	522.446830639	0.0
5.7549	522.566842397	4.0
5.7651	522.685038083	2.0
5.7754	522.803738865	1.0
5.7856	522.920643414	1.0
5.7958	523.036910808	1.0
5.8061	523.153675058	0.0
5.8163	523.268672379	4.0
5.8266	523.384161128	0.0
5.8368	523.49790225	1.0
5.847	523.611023458	2.0
5.8573	523.724628078	0.0
5.8675	523.836513581	3.0
5.8778	523.948877215	0.0
5.888	524.059540512	0.0
5.8982	524.16960067	0.0
5.9085	524.280131159	2.0
5.9187	524.38898905	0.0
5.929	524.498312134	0.0
5.9392	524.605980891	1.0
5.9494	524.713062831	1.0
5.9597	524.820602374	2.0
5.9699	524.92651458	0.0
5.9802	525.032879391	3.0
5.9904	525.137634641	3.0
6.0006	525.241818953	2.0
6.0109	525.346448485	1.0
6.0211	525.449494716	1.0
6.0314	525.552981304	1.0
6.0416	525.654901886	2.0
6.0518	525.756266979	1.0
6.0621	525.858065245	2.0
6.0723	525.958323054	1.0
6.0826	526.059009304	1.0
6.0928	526.158171925	0.0
6.103	526.256794087	1.0
6.1133	526.355837701	0.0
6.1235	526.453382542	1.0
6.1338	526.551344231	1.0
6.144	526.647823519	2.0
6.1542	526.743776974	0.0
6.1645	526.840140476	1.0
6.1747	526.935045763	1.0
6.185	527.030356616	3.0
6.1952	527.124225184	1.0
6.2054	527.217582147	2.0
6.2157	527.311338061	0.0
6.2259	527.403675218	1.0
6.2362	527.496406969	0.0
6.2464	527.58773546	1.0
6.2566	527.678566192	0.0
6.2669	527.769785079	0.0
6.2771	527.859623601	1.0
6.2874	527.949846038	0.0
6.2976	528.038703189	2.0
6.3078	528.127076049	0.0
6.3181	528.215826561	1.0
6.3283	528.30323406	0.0
6.3386	528.391015086	0.0
6.3488	528.47746777	0.0
6.359	528.563449268	1.0
6.3693	528.649798199	0.0
6.3795	528.734840459	1.0
6.3898	528.820246138	1.0
6.4	528.904359419	0.0
6.4102	528.988014266	1.0
6.4205	529.072026602	0.0
6.4307	529.154767625	1.0
6.441	529.237862234	0.0
6.4512	529.319699418	0.0
6.4614	529.401090571	1.0
6.4717	529.48282954	1.0
6.4819	529.563331599	2.0
6.4922	529.644177675	1.0
6.5024	529.723800351	3.0
6.5126	529.802989067	2.0
6.5229	529.882516187	0.0
6.5331	529.960839867	0.0
6.5434	530.039498255	1.0
6.5536	530.116966349	0.0
6.5638	530.194012225	0.0
6.5741	530.271387348	1.0
6.5843	530.347591596	1.0
6.5946	530.424121494	0.0
6.6048	530.499493308	1.0
6.615	530.574454329	0.0
6.6253	530.649735688	2.0
6.6355	530.723877856	0.0
6.6458	530.798336862	0.0
6.656	530.871669121	1.0
6.6662	530.944601704	2.0
6.6765	531.017845955	2.0
6.6867	531.089981842	1.0
6.697	531.162425994	0.0
6.7072	531.233773889	0.0
6.7174	531.304732922	0.0
6.7277	531.375995191	0.0
6.7379	531.446179087	1.0
6.7482	531.516662906	0.0
6.7584	531.586080133	0.0
6.7686	531.65511902	1.0
6.7789	531.724452938	0.0
6.7891	531.792737664	0.0
6.7994	531.861314198	0.0
6.8096	531.928853	1.0
6.8198	531.996023701	0.0
6.8301	532.06348145	0.0
6.8403	532.129918397	1.0
6.8506	532.196639255	0.0
6.8608	532.262350463	0.0
6.871	532.327703531	1.0
6.8813	532.393335879	1.0
6.8915	532.457975048	0.0
6.9018	532.522890445	0.0
6.912	532.586823514	1.0
6.9222	532.650408134	1.0
6.9325	532.714264475	0.0
6.9427	532.777154514	1.0
6.953	532.840313307	0.0
6.9632	532.902516352	0.0
6.9734	532.964380377	2.0
6.9837	533.026508772	1.0
6.9939	533.087697012	0.0
7.0042	533.149146733	1.0
7.0144	533.209666569	0.0
7.0246	533.269856559	2.0
7.0349	533.330303765	1.0
7.0451	533.389836256	0.0
7.0554	533.449623153	0.0
7.0656	533.508505328	0.0
7.0758	533.567066582	1.0
7.0861	533.625878091	0.0
7.0963	533.683799639	1.0
7.1066	533.741968707	0.0
7.1168	533.799257536	1.0
7.127	533.856234127	2.0
7.1373	533.913454202	1.0
7.1475	533.969808397	1.0
7.1578	534.026403416	0.0
7.168	534.082142014	0.0
7.1782	534.137576824	1.0
7.1885	534.193248528	1.0
7.1987	534.248077784	2.0
7.209	534.303141346	0.0
7.2192	534.357371662	2.0
7.2294	534.411306411	3.0
7.2397	534.465471644	1.0
7.2499	534.518817225	0.0
7.2602	534.572390772	1.0
7.2704	534.62515362	0.0
7.2806	534.6776289	1.0
7.2909	534.730328426	0.0
7.3011	534.78223048	1.0
7.3114	534.834354332	1.0
7.3216	534.885689422	0.0
7.3318	534.936744725	1.0
7.3421	534.988018207	4.0
7.3523	535.038515795	0.0
7.3626	535.08922918	0.0
7.3728	535.139175147	0.0
7.383	535.188848898	1.0
7.3933	535.238734924	0.0
7.4035	535.287866052	2.0
7.4138	535.337207137	1.0
7.424	535.38580157	0.0
7.4342	535.434131154	1.0
7.4445	535.482667268	0.0
7.4547	535.530468912	0.0
7.465	535.578474832	1.0
7.4752	535.625754304	1.0
7.4854	535.672776093	1.0
7.4957	535.719998824	0.0
7.5059	535.76650696	0.0
7.5162	535.813213843	0.0
7.5264	535.859213937	0.0
7.5366	535.904963321	0.0
7.5469	535.950908209	0.0
7.5571	535.996157839	1.0
7.5674	536.041600838	1.0
7.5776	536.086356173	1.0
7.5878	536.130867582	0.0
7.5981	536.175569206	1.0
7.6083	536.219594385	0.0
7.6186	536.2638077	0.0
7.6288	536.30735196	0.0
7.639	536.350658894	1.0
7.6493	536.394150896	1.0
7.6595	536.436984757	1.0
7.6698	536.480001664	2.0
7.68	536.52236762	2.0
7.6902	536.564502672	0.0
7.7005	536.606817784	1.0
7.7107	536.648492564	0.0
7.721	536.690345437	2.0
7.7312	536.731564974	1.0
7.7414	536.772559855	1.0
7.7517	536.813729924	1.0
7.7619	536.854276989	1.0
7.7722	536.894997327	1.0
7.7824	536.935101466	1.0
7.7926	536.97498703	0.0
7.8029	537.01504304	1.0
7.8131	537.054492904	3.0
7.8234	537.094111354	0.0
7.8336	537.133130279	0.0
7.8438	537.171936542	1.0
7.8541	537.21090864	0.0
7.8643	537.249290995	1.0
7.8746	537.287837372	1.0
7.8848	537.325800448	1.0
7.895	537.363556618	0.0
7.9053	537.401474134	1.0
7.9155	537.438817865	0.0
7.9258	537.476321181	0.0
7.936	537.51325698	0.0
7.9462	537.549991471	0.0
7.9565	537.586882942	2.0
7.9667	537.623216156	0.0
7.977	537.659704635	0.0
7.9872	537.695640954	0.0
7.9974	537.731381413	0.0
8.0077	537.767274604	1.0
8.0179	537.802624644	0.0
8.0282	537.838125748	0.0
8.0384	537.873089634	1.0
8.0486	537.907862959	0.0
8.0589	537.942784883	0.0
