TL-DOS Lehrstuhlversuch
detector=R1407503
job_number=2015-11-03-005
irradiation_dose [mSv]=0.1

[BEGIN DATA]
time [sec] 	 temperature [K] 	 photoncount 
0.0	171.606548213	0.0
0.0102	172.950808448	0.0
0.0205	174.303612322	0.0
0.0307	175.638707449	1.0
0.041	176.982287964	2.0
0.0512	178.308280469	0.0
0.0614	179.629767013	2.0
0.0717	180.959652455	2.0
0.0819	182.272129161	1.0
0.0922	183.592947501	0.0
0.1024	184.896475796	1.0
0.1126	186.195574469	2.0
0.1229	187.502929749	1.0
0.1331	188.793171222	1.0
0.1434	190.091613011	2.0
0.1536	191.373057673	3.0
0.1638	192.650147756	1.0
0.1741	193.935354568	0.0
0.1843	195.203737506	0.0
0.1946	196.480181833	0.0
0.2048	197.73991699	1.0
0.215	198.995371341	1.0
0.2253	200.258804912	1.0
0.2355	201.505699629	0.0
0.2458	202.760519164	0.0
0.256	203.998912606	0.0
0.2662	205.233097764	1.0
0.2765	206.475126964	0.0
0.2867	207.700897501	1.0
0.297	208.934458598	0.0
0.3072	210.151871884	0.0
0.3174	211.365148181	0.0
0.3277	212.58613563	1.0
0.3379	213.791139861	0.0
0.3482	215.00380267	0.0
0.3584	216.200591233	1.0
0.3686	217.393312895	0.0
0.3789	218.59361507	0.0
0.3891	219.778204806	0.0
0.3994	220.970323372	0.0
0.4096	222.146836626	0.0
0.4198	223.319351877	0.0
0.4301	224.499319217	0.0
0.4403	225.663840309	0.0
0.4506	226.835762682	0.0
0.4608	227.992344119	0.0
0.471	229.144995284	0.0
0.4813	230.30497229	0.0
0.4915	231.449764729	0.0
0.5018	232.601833061	0.0
0.512	233.738820354	0.0
0.5222	234.871943961	0.0
0.5325	236.012269297	0.0
0.5427	237.137667315	0.0
0.553	238.270217962	1.0
0.5632	239.387943065	0.0
0.5734	240.501869936	0.0
0.5837	241.622876531	1.0
0.5939	242.729208697	0.0
0.6042	243.842572316	0.0
0.6144	244.941361557	0.0
0.6246	246.036416915	1.0
0.6349	247.138432054	0.0
0.6451	248.226021371	0.0
0.6554	249.320523019	0.0
0.6656	250.400697199	0.0
0.6758	251.477200752	0.0
0.6861	252.560546179	0.0
0.6963	253.629710178	1.0
0.7066	254.705669402	0.0
0.7168	255.767543887	1.0
0.727	256.825809931	0.0
0.7373	257.890801937	0.0
0.7475	258.941852769	0.0
0.7578	259.999583705	1.0
0.768	261.043468517	0.0
0.7782	262.083806021	0.0
0.7885	263.130755539	0.0
0.7987	264.164000067	0.0
0.809	265.203811528	1.0
0.8192	266.230011439	1.0
0.8294	267.252724137	1.0
0.8397	268.281936834	0.0
0.8499	269.297676721	0.0
0.8602	270.319872289	0.0
0.8704	271.328686906	0.0
0.8806	272.334073389	0.0
0.8909	273.34584975	0.0
0.9011	274.344381552	0.0
0.9114	275.349259665	1.0
0.9216	276.340983519	0.0
0.9318	277.329337318	2.0
0.9421	278.32397274	0.0
0.9523	279.305587985	1.0
0.9626	280.293442026	0.0
0.9728	281.26836466	0.0
0.983	282.239974331	0.0
0.9933	283.217759208	0.0
1.0035	284.182744486	1.0
1.0138	285.153862867	0.0
1.024	286.112268917	0.0
1.0342	287.067418131	1.0
1.0445	288.028637934	1.0
1.0547	288.977274981	0.0
1.065	289.931941228	0.0
1.0752	290.874110509	1.0
1.0854	291.81307813	1.0
1.0957	292.758013494	1.0
1.1059	293.690579273	0.0
1.1162	294.629072109	0.0
1.1264	295.555279695	0.0
1.1366	296.478339861	0.0
1.1469	297.407266669	1.0
1.1571	298.32403345	0.0
1.1674	299.246626875	0.0
1.1776	300.15714318	1.0
1.1878	301.064565387	0.0
1.1981	301.977754846	0.0
1.2083	302.878990287	0.0
1.2186	303.785953659	0.0
1.2288	304.681044516	5.0
1.239	305.573093693	0.0
1.2493	306.470812417	0.0
1.2595	307.356779641	2.0
1.2698	308.248377757	0.0
1.28	309.128304494	1.0
1.2902	310.005241082	0.0
1.3005	310.887751167	2.0
1.3107	311.758708839	0.0
1.321	312.635202008	0.0
1.3312	313.500221528	0.0
1.3414	314.362301556	0.0
1.3517	315.229860658	0.0
1.3619	316.086063062	1.0
1.3722	316.947707183	0.0
1.3824	317.798072035	3.0
1.3926	318.645547195	1.0
1.4029	319.498408605	2.0
1.4131	320.340105715	0.0
1.4234	321.187152353	0.0
1.4336	322.023110808	1.0
1.4438	322.856228527	0.0
1.4541	323.694641245	2.0
1.4643	324.522078802	0.0
1.4746	325.354775258	1.0
1.4848	326.176571382	1.0
1.495	326.995574895	0.0
1.5053	327.819783703	2.0
1.5155	328.633203285	1.0
1.5258	329.451792672	0.0
1.536	330.259666394	0.0
1.5462	331.064794817	2.0
1.5565	331.875040348	1.0
1.5667	332.674679439	0.0
1.577	333.479400751	1.0
1.5872	334.273587938	1.0
1.5974	335.065076333	0.0
1.6077	335.861595146	1.0
1.6179	336.647687208	1.0
1.6282	337.43877539	1.0
1.6384	338.21950791	1.0
1.6486	338.99758736	0.0
1.6589	339.780612005	1.0
1.6691	340.553386543	1.0
1.6794	341.33107256	4.0
1.6896	342.098578354	3.0
1.6998	342.863476026	2.0
1.7101	343.633235114	0.0
1.7203	344.392917746	1.0
1.7306	345.15742865	1.0
1.7408	345.911931798	2.0
1.751	346.663871009	2.0
1.7613	347.420589278	2.0
1.7715	348.167401799	2.0
1.7818	348.918960795	1.0
1.792	349.660681581	0.0
1.8022	350.399881866	2.0
1.8125	351.143780245	2.0
1.8227	351.877940695	2.0
1.833	352.616767207	1.0
1.8432	353.345922182	1.0
1.8534	354.072599357	0.0
1.8637	354.803895034	2.0
1.8739	355.525617755	3.0
1.8842	356.251927489	5.0
1.8944	356.968729536	1.0
1.9046	357.683095761	3.0
1.9149	358.402002243	4.0
1.9251	359.111497949	1.0
1.9354	359.825502958	2.0
1.9456	360.530161353	3.0
1.9558	361.232425192	2.0
1.9661	361.93915237	1.0
1.9763	362.636628205	3.0
1.9866	363.338536947	2.0
1.9968	364.031257422	3.0
2.007	364.721623907	3.0
2.0173	365.416378116	1.0
2.0275	366.102037713	4.0
2.0378	366.792055117	0.0
2.048	367.473039916	5.0
2.0582	368.151710606	2.0
2.0685	368.834694685	2.0
2.0787	369.508738228	4.0
2.089	370.18706575	8.0
2.0992	370.856513693	10.0
2.1094	371.523686731	4.0
2.1197	372.195100083	11.0
2.1299	372.857724364	5.0
2.1402	373.524560048	4.0
2.1504	374.182666585	2.0
2.1606	374.838536758	5.0
2.1709	375.498575407	3.0
2.1811	376.149973885	3.0
2.1914	376.80551242	6.0
2.2016	377.452469691	7.0
2.2118	378.097228485	4.0
2.2221	378.746085136	8.0
2.2323	379.386447992	5.0
2.2426	380.030880766	4.0
2.2528	380.666877656	5.0
2.263	381.300713313	6.0
2.2733	381.938577405	7.0
2.2835	382.568091598	8.0
2.2938	383.20160676	8.0
2.304	383.826828952	5.0
2.3142	384.449926528	7.0
2.3245	385.076984289	12.0
2.3347	385.695833612	9.0
2.345	386.318616121	10.0
2.3552	386.933246155	14.0
2.3654	387.545787567	8.0
2.3757	388.162222073	15.0
2.3859	388.770587203	11.0
2.3962	389.382818885	8.0
2.4064	389.987036208	13.0
2.4166	390.589200292	12.0
2.4269	391.195191516	10.0
2.4371	391.793250071	11.0
2.4474	392.395109673	10.0
2.4576	392.989090691	9.0
2.4678	393.581053254	13.0
2.4781	394.17677812	11.0
2.4883	394.764704708	8.0
2.4986	395.356367947	19.0
2.5088	395.940286077	21.0
2.519	396.522219947	15.0
2.5293	397.107852382	15.0
2.5395	397.685818653	12.0
2.5498	398.267458271	12.0
2.56	398.841483992	17.0
2.5702	399.413559071	14.0
2.5805	399.989270055	23.0
2.5907	400.55744475	20.0
2.601	401.129230562	15.0
2.6112	401.693531466	16.0
2.6214	402.255914775	12.0
2.6317	402.821872392	23.0
2.6419	403.380421395	18.0
2.6522	403.942520337	16.0
2.6624	404.497261177	15.0
2.6726	405.050116909	14.0
2.6829	405.606486394	17.0
2.6931	406.155572778	16.0
2.7034	406.70814896	6.0
2.7136	407.253491697	17.0
2.7238	407.796981262	14.0
2.7341	408.343925052	12.0
2.7443	408.883709128	8.0
2.7546	409.42692388	15.0
2.7648	409.963027731	12.0
2.775	410.497309805	10.0
2.7853	411.034987585	16.0
2.7955	411.565626947	9.0
2.8058	412.099638864	13.0
2.816	412.626660349	19.0
2.8262	413.151890921	14.0
2.8365	413.680459671	9.0
2.8467	414.202109243	10.0
2.857	414.727074233	18.0
2.8672	415.245167221	13.0
2.8774	415.761499636	21.0
2.8877	416.281113675	17.0
2.8979	416.793925758	17.0
2.9082	417.309997091	14.0
2.9184	417.819312842	6.0
2.9286	418.326897847	8.0
2.9389	418.837708882	7.0
2.9491	419.341833194	8.0
2.9594	419.849161541	6.0
2.9696	420.349848755	9.0
2.9798	420.848834544	5.0
2.9901	421.35099171	9.0
3.0003	421.846575435	14.0
3.0106	422.345308914	8.0
3.0208	422.837513771	3.0
3.031	423.328046027	5.0
3.0413	423.821695932	7.0
3.0515	424.30888376	8.0
3.0618	424.799167981	7.0
3.072	425.283034184	10.0
3.0822	425.765256122	10.0
3.0925	426.250542891	7.0
3.1027	426.729477061	7.0
3.113	427.211455166	15.0
3.1232	427.687123983	7.0
3.1334	428.161176392	13.0
3.1437	428.63824171	13.0
3.1539	429.10906205	10.0
3.1642	429.582874756	9.0
3.1744	430.050485063	14.0
3.1846	430.516506347	8.0
3.1949	430.985489495	15.0
3.2051	431.448333466	11.0
3.2154	431.914119107	13.0
3.2256	432.373807427	11.0
3.2358	432.831933644	11.0
3.2461	433.292971547	15.0
3.2563	433.747974278	20.0
3.2666	434.205868845	20.0
3.2768	434.657769387	17.0
3.287	435.10813429	15.0
3.2973	435.561361552	14.0
3.3075	436.008655887	15.0
3.3178	436.458793065	22.0
3.328	436.903037766	17.0
3.3382	437.345772843	11.0
3.3485	437.791321787	7.0
3.3587	438.231038316	12.0
3.369	438.673549526	10.0
3.3792	439.110268087	15.0
3.3894	439.545502599	20.0
3.3997	439.983503307	16.0
3.4099	440.415770409	18.0
3.4202	440.850784846	11.0
3.4304	441.28010477	18.0
3.4406	441.707965787	24.0
3.4509	442.138546136	23.0
3.4611	442.563490015	15.0
3.4714	442.991134686	22.0
3.4816	443.413181316	16.0
3.4918	443.833793756	18.0
3.5021	444.257079458	23.0
3.5123	444.67482418	14.0
3.5226	445.095223939	16.0
3.5328	445.510120495	20.0
3.543	445.923607158	17.0
3.5533	446.339721796	17.0
3.5635	446.750389325	11.0
3.5738	447.16366691	23.0
3.584	447.571534526	18.0
3.5942	447.978016134	20.0
3.6045	448.387081194	13.0
3.6147	448.790791428	17.0
3.625	449.1970675	15.0
3.6352	449.598025254	16.0
3.6454	449.997620483	15.0
3.6557	450.399755396	21.0
3.6659	450.796626201	17.0
3.6762	451.196019375	18.0
3.6864	451.590184332	20.0
3.6966	451.983009846	20.0
3.7069	452.378332018	13.0
3.7171	452.768479265	17.0
3.7274	453.161106147	14.0
3.7376	453.548593386	18.0
3.7478	453.934763874	15.0
3.7581	454.323388724	17.0
3.7683	454.706926317	5.0
3.7786	455.092901539	15.0
3.7888	455.47382419	15.0
3.799	455.853452398	17.0
3.8093	456.235493386	12.0
3.8195	456.612533305	14.0
3.8298	456.991969555	16.0
3.84	457.366438831	26.0
3.8502	457.739635594	11.0
3.8605	458.115204262	13.0
3.8707	458.485856585	20.0
3.881	458.858864642	11.0
3.8912	459.226989873	11.0
3.9014	459.593864149	7.0
3.9117	459.963070147	10.0
3.9219	460.327443089	16.0
3.9322	460.694131857	12.0
3.9424	461.05602052	12.0
3.9526	461.416679421	15.0
3.9629	461.779630541	12.0
3.9731	462.137830485	10.0
3.9834	462.49830702	19.0
3.9936	462.854064772	10.0
4.0038	463.208613595	4.0
4.0141	463.565415804	11.0
4.0243	463.917547329	13.0
4.0346	464.271916876	9.0
4.0448	464.621647583	6.0
4.055	464.970189842	11.0
4.0653	465.320947311	8.0
4.0755	465.667113224	12.0
4.0858	466.015479244	14.0
4.096	466.359285013	17.0
4.1062	466.701922468	10.0
4.1165	467.046737604	16.0
4.1267	467.387038971	11.0
4.137	467.729503173	14.0
4.1472	468.06748438	12.0
4.1574	468.404317066	7.0
4.1677	468.743290541	10.0
4.1779	469.077826717	15.0
4.1882	469.414489085	16.0
4.1984	469.746744407	10.0
4.2086	470.077870666	9.0
4.2189	470.411101445	19.0
4.2291	470.7399701	13.0
4.2394	471.070928926	12.0
4.2496	471.397555368	12.0
4.2598	471.723071874	16.0
4.2701	472.050657248	10.0
4.2803	472.373954397	12.0
4.2906	472.699306307	18.0
4.3008	473.02039923	19.0
4.311	473.340401021	11.0
4.3213	473.66243663	10.0
4.3315	473.980256663	19.0
4.3418	474.300096646	12.0
4.352	474.615749796	11.0
4.3622	474.930330299	15.0
4.3725	475.246910164	13.0
4.3827	475.559345871	12.0
4.393	475.873767308	12.0
4.4032	476.184072842	13.0
4.4134	476.493323902	15.0
4.4237	476.804540451	12.0
4.4339	477.111683051	14.0
4.4442	477.420777739	12.0
4.4544	477.725826253	10.0
4.4646	478.029838158	11.0
4.4749	478.335782253	14.0
4.4851	478.637721418	15.0
4.4954	478.9415796	13.0
4.5056	479.241460156	7.0
4.5158	479.540321664	11.0
4.5261	479.84108263	18.0
4.5363	480.137906513	8.0
4.5466	480.436616903	15.0
4.5568	480.731417054	9.0
4.567	481.02521542	10.0
4.5773	481.320881065	9.0
4.5875	481.612676327	11.0
4.5978	481.906326136	15.0
4.608	482.19613195	12.0
4.6182	482.484952953	8.0
4.6285	482.775609598	15.0
4.6387	483.062461431	13.0
4.649	483.351136392	10.0
4.6592	483.636032482	19.0
4.6694	483.919960443	5.0
4.6797	484.20569295	13.0
4.6899	484.487685103	13.0
4.7002	484.771469497	13.0
4.7104	485.051539039	20.0
4.7206	485.330656855	14.0
4.7309	485.611548644	8.0
4.7411	485.888763447	6.0
4.7514	486.167740128	8.0
4.7616	486.443064891	9.0
4.7718	486.717454052	11.0
4.7821	486.993587133	9.0
4.7923	487.26610552	11.0
4.8026	487.540355937	8.0
4.8128	487.811016306	10.0
4.823	488.080756922	15.0
4.8333	488.352211913	9.0
4.8435	488.620113449	13.0
4.8538	488.889717671	6.0
4.864	489.155792666	10.0
4.8742	489.420963491	18.0
4.8845	489.687819646	10.0
4.8947	489.951182547	15.0
4.905	490.216219289	8.0
4.9152	490.477786592	12.0
4.9254	490.738465044	14.0
4.9357	491.000800274	5.0
4.9459	491.259701431	10.0
4.9562	491.520248071	3.0
4.9664	491.777384051	7.0
4.9766	492.033646236	10.0
4.9869	492.291537133	5.0
4.9971	492.546052134	9.0
5.0074	492.802184741	7.0
5.0176	493.05496447	15.0
5.0278	493.306885207	10.0
5.0381	493.560407063	18.0
5.0483	493.810610216	12.0
5.0586	494.062403571	9.0
5.0688	494.310900849	9.0
5.079	494.558553689	12.0
5.0893	494.807780522	14.0
5.0995	495.053744876	9.0
5.1098	495.301272491	11.0
5.12	495.54555987	11.0
5.1302	495.789017117	7.0
5.1405	496.034021691	9.0
5.1507	496.275819057	6.0
5.161	496.5191532	11.0
5.1712	496.759302002	11.0
5.1814	496.998634735	13.0
5.1917	497.239488581	12.0
5.2019	497.477189554	12.0
5.2122	497.716401269	22.0
5.2224	497.952481606	13.0
5.2326	498.1877597	9.0
5.2429	498.424533138	8.0
5.2531	498.658207116	9.0
5.2634	498.893366243	8.0
5.2736	499.125447041	14.0
5.2838	499.356739188	14.0
5.2941	499.589501345	13.0
5.3043	499.819216552	12.0
5.3146	500.050391746	2.0
5.3248	500.278540765	6.0
5.335	500.505914492	5.0
5.3453	500.734733325	10.0
5.3555	500.960556827	10.0
5.3658	501.187815584	5.0
5.376	501.412099431	15.0
5.3862	501.635621122	10.0
5.3965	501.860563437	20.0
5.4067	502.082561167	13.0
5.417	502.305969835	12.0
5.4272	502.526453993	10.0
5.4374	502.746188907	9.0
5.4477	502.967320377	10.0
5.4579	503.185557148	15.0
5.4682	503.405180953	11.0
5.4784	503.621929795	4.0
5.4886	503.837942085	9.0
5.4989	504.055327272	6.0
5.5091	504.269866799	13.0
5.5194	504.485769864	8.0
5.5296	504.69884667	8.0
5.5398	504.911199403	6.0
5.5501	505.124901774	11.0
5.5603	505.335806695	9.0
5.5706	505.548052053	9.0
5.5808	505.757519033	8.0
5.591	505.966274207	7.0
5.6013	506.176356154	7.0
5.6115	506.383688044	8.0
5.6218	506.592337662	6.0
5.632	506.798255972	8.0
5.6422	507.003474535	4.0
5.6525	507.209997394	10.0
5.6627	507.413816785	4.0
5.673	507.61893158	6.0
5.6832	507.821361339	6.0
5.6934	508.023103206	8.0
5.7037	508.226127272	10.0
5.7139	508.426493672	12.0
5.7242	508.628133528	5.0
5.7344	508.827133838	5.0
5.7446	509.025457909	11.0
5.7549	509.225042458	6.0
5.7651	509.422014364	7.0
5.7754	509.620238153	10.0
5.7856	509.815867113	5.0
5.7958	510.010831291	6.0
5.8061	510.207034591	11.0
5.8163	510.400669511	7.0
5.8266	510.595535106	4.0
5.8368	510.787849832	10.0
5.847	510.979511037	5.0
5.8573	511.172390373	5.0
5.8675	511.362744841	8.0
5.8778	511.554309134	2.0
5.888	511.743365773	5.0
5.8982	511.931779964	6.0
5.9085	512.121391648	4.0
5.9187	512.308521239	4.0
5.929	512.496840159	6.0
5.9392	512.682693908	4.0
5.9494	512.867916093	5.0
5.9597	513.054315484	8.0
5.9699	513.238274832	4.0
5.9802	513.423403361	3.0
5.9904	513.606108482	4.0
6.0006	513.788192738	9.0
6.0109	513.971434257	4.0
6.0211	514.15227707	10.0
6.0314	514.334269256	5.0
6.0416	514.513879091	3.0
6.0518	514.69287858	2.0
6.0621	514.873015725	2.0
6.0723	515.050794803	2.0
6.0826	515.229703781	6.0
6.0928	515.406270769	5.0
6.103	515.58223775	4.0
6.1133	515.759323114	3.0
6.1235	515.93409036	4.0
6.1338	516.109968364	1.0
6.144	516.283544055	6.0
6.1542	516.456529904	3.0
6.1645	516.630615189	4.0
6.1747	516.802421628	5.0
6.185	516.975320007	5.0
6.1952	517.145955077	3.0
6.2054	517.316010298	5.0
6.2157	517.48714633	1.0
6.2259	517.656042122	2.0
6.2362	517.826011355	2.0
6.2464	517.993755623	6.0
6.2566	518.160929865	2.0
6.2669	518.329166608	3.0
6.2771	518.495201064	3.0
6.2874	518.662290775	4.0
6.2976	518.827193215	1.0
6.3078	518.991535287	0.0
6.3181	519.156921858	2.0
6.3283	519.320143453	2.0
6.3386	519.484402426	3.0
6.3488	519.646511183	3.0
6.359	519.808069065	4.0
6.3693	519.970653751	1.0
6.3795	520.131110139	0.0
6.3898	520.29258633	0.0
6.4	520.451948732	3.0
6.4102	520.610769593	4.0
6.4205	520.770599862	3.0
6.4307	520.928337889	2.0
6.441	521.087078442	2.0
6.4512	521.243741018	4.0
6.4614	521.399871226	1.0
6.4717	521.556993742	3.0
6.4819	521.712059461	1.0
6.4922	521.868110722	1.0
6.5024	522.02211921	1.0
6.5126	522.175604349	1.0
6.5229	522.330064984	2.0
6.5331	522.482503668	1.0
6.5434	522.635911198	0.0
6.5536	522.787310562	0.0
6.5638	522.938195443	2.0
6.5741	523.090039295	4.0
6.5843	523.239895449	2.0
6.5946	523.390704036	4.0
6.6048	523.539538478	1.0
6.615	523.687867154	2.0
6.6253	523.837138553	1.0
6.6355	523.98445593	1.0
6.6458	524.132709604	0.0
6.656	524.279022578	3.0
6.6662	524.424838353	0.0
6.6765	524.571580882	1.0
6.6867	524.716402492	0.0
6.697	524.862144537	3.0
6.7072	525.005978759	0.0
6.7174	525.149324207	0.0
6.7277	525.293580708	1.0
6.7379	525.435948832	2.0
6.7482	525.579221798	1.0
6.7584	525.720619263	0.0
6.7686	525.861536234	2.0
6.7789	526.003348824	2.0
6.7891	526.143305029	0.0
6.7994	526.284150746	0.0
6.8096	526.423152735	0.0
6.8198	526.561682371	2.0
6.8301	526.701092452	0.0
6.8403	526.838677599	0.0
6.8506	526.977137188	1.0
6.8608	527.113784286	0.0
6.871	527.249967032	0.0
6.8813	527.387015306	2.0
6.8915	527.522269564	0.0
6.9018	527.65838345	0.0
6.912	527.79271555	1.0
6.9222	527.926591165	1.0
6.9325	528.061317646	0.0
6.9427	528.194280504	1.0
6.953	528.328088425	0.0
6.9632	528.460144747	0.0
6.9734	528.591752318	0.0
6.9837	528.72419634	0.0
6.9939	528.854906617	0.0
7.0042	528.986447641	2.0
7.0144	529.11626674	1.0
7.0246	529.24564469	0.0
7.0349	529.375844921	2.0
7.0451	529.504340778	1.0
7.0554	529.63365331	1.0
7.0656	529.761273088	0.0
7.0758	529.888459191	0.0
7.0861	530.016453643	2.0
7.0963	530.142772597	0.0
7.1066	530.269894389	2.0
7.1168	530.395352105	1.0
7.127	530.520383494	0.0
7.1373	530.646209537	0.0
7.1475	530.770388467	0.0
7.1578	530.895356634	1.0
7.168	531.018688918	1.0
7.1782	531.141602096	2.0
7.1885	531.265296466	1.0
7.1987	531.387371627	0.0
7.209	531.510222655	1.0
7.2192	531.631465513	0.0
7.2294	531.752296366	0.0
7.2397	531.873895177	0.0
7.2499	531.99390221	1.0
7.2602	532.114671966	0.0
7.2704	532.233860796	0.0
7.2806	532.352644602	1.0
7.2909	532.472183355	0.0
7.3011	532.590157298	1.0
7.3114	532.708881041	3.0
7.3216	532.826050642	0.0
7.3318	532.94282208	2.0
7.3421	533.060335676	2.0
7.3523	533.176310971	0.0
7.3626	533.293023364	0.0
7.3728	533.408207945	0.0
7.383	533.523001108	0.0
7.3933	533.638523855	0.0
7.4035	533.752534363	0.0
7.4138	533.867269481	0.0
7.424	533.980502671	0.0
7.4342	534.093351073	0.0
7.4445	534.2069167	0.0
7.4547	534.318995707	0.0
7.465	534.431787048	0.0
7.4752	534.543101905	0.0
7.4854	534.654038494	3.0
7.4957	534.765680157	0.0
7.5059	534.875860385	0.0
7.5162	534.98674088	2.0
7.5264	535.096169904	2.0
7.5366	535.205227069	0.0
7.5469	535.314977362	0.0
7.5571	535.42329098	0.0
7.5674	535.532293	1.0
7.5776	535.63986814	1.0
7.5878	535.747077721	0.0
7.5981	535.854968687	0.0
7.6083	535.961447317	0.0
7.6186	536.068602687	1.0
7.6288	536.174355351	1.0
7.639	536.279748648	1.0
7.6493	536.385811787	0.0
7.6595	536.490486516	1.0
7.6698	536.595826521	3.0
7.68	536.699787583	5.0
7.6902	536.803395367	2.0
7.7005	536.907661645	1.0
7.7107	537.010563035	0.0
7.721	537.11411843	0.0
7.7312	537.216318243	0.0
7.7414	537.318170762	0.0
7.7517	537.42067062	0.0
7.7619	537.521828714	0.0
7.7722	537.623629732	0.0
7.7824	537.724098134	1.0
7.7926	537.824225126	0.0
7.8029	537.92498849	2.0
7.8131	538.024432821	0.0
7.8234	538.124509184	0.0
7.8336	538.223275508	1.0
7.8438	538.321706206	0.0
7.8541	538.420762494	0.0
7.8643	538.518522095	0.0
7.8746	538.616903022	1.0
7.8848	538.713996103	1.0
7.895	538.810759244	0.0
7.9053	538.908137377	0.0
7.9155	539.004240791	0.0
7.9258	539.100955004	1.0
7.936	539.196403189	0.0
7.9462	539.291527024	1.0
7.9565	539.387255433	2.0
7.9667	539.481730717	0.0
7.977	539.576806453	0.0
7.9872	539.67063761	0.0
7.9974	539.764149911	0.0
8.0077	539.858256543	0.0
8.0179	539.951131281	0.0
8.0282	540.044596299	0.0
8.0384	540.136837821	1.0
8.0486	540.22876589	3.0
8.0589	540.321278221	1.0
8.0691	540.412579529	1.0
8.0794	540.504461115	0.0
8.0896	540.595139934	0.0
