TL-DOS Lehrstuhlversuch
detector=R1407206
job_number=2015-10-27-004
irradiation_dose [mSv]=0.4

[BEGIN DATA]
time [sec] 	 temperature [K] 	 photoncount 
0.0	221.017454115	0.0
0.0102	222.02824936	0.0
0.0205	223.046145715	0.0
0.0307	224.051385843	0.0
0.041	225.063688056	1.0
0.0512	226.063403597	0.0
0.0614	227.060381642	0.0
0.0717	228.064363728	3.0
0.0819	229.055862593	0.0
0.0922	230.054327006	0.0
0.1024	231.040376803	1.0
0.1126	232.023726525	1.0
0.1229	233.013984544	2.0
0.1331	233.991929984	1.0
0.1434	234.976745755	2.0
0.1536	235.949316614	0.0
0.1638	236.919224306	0.0
0.1741	237.895945862	3.0
0.1843	238.860523146	0.0
0.1946	239.831876848	1.0
0.2048	240.79115302	2.0
0.215	241.74780243	0.0
0.2253	242.711172561	4.0
0.2355	243.662564429	3.0
0.2458	244.620640082	0.0
0.256	245.566803302	0.0
0.2662	246.510375666	0.0
0.2765	247.460576881	0.0
0.2867	248.398963571	0.0
0.297	249.343942682	0.0
0.3072	250.277172198	0.0
0.3174	251.207846274	0.0
0.3277	252.145058588	0.0
0.3379	253.070617877	0.0
0.3482	254.00267947	0.0
0.3584	254.923152081	0.0
0.3686	255.841104185	0.0
0.3789	256.765505151	0.0
0.3891	257.678412384	0.0
0.3994	258.597733038	0.0
0.4096	259.505623127	0.0
0.4198	260.411027162	0.0
0.4301	261.322791906	0.0
0.4403	262.223220033	0.0
0.4506	263.129973911	0.0
0.4608	264.025453476	0.0
0.471	264.918480971	0.0
0.4813	265.817782226	0.0
0.4915	266.705901831	0.0
0.5018	267.600260717	0.0
0.512	268.483499405	0.0
0.5222	269.364319542	0.0
0.5325	270.251327679	0.0
0.5427	271.127307015	0.0
0.553	272.009440344	0.0
0.5632	272.880605483	0.0
0.5734	273.749385133	0.0
0.5837	274.624268194	0.0
0.5939	275.488273215	0.0
0.6042	276.358348105	0.0
0.6144	277.217604737	0.0
0.6246	278.074508488	0.0
0.6349	278.937432219	0.0
0.6451	279.789626608	1.0
0.6554	280.647807894	0.0
0.6656	281.495318804	1.0
0.6758	282.340508995	0.0
0.6861	283.191636876	0.0
0.6963	284.032182081	0.0
0.7066	284.878632344	0.0
0.7168	285.714558091	0.0
0.727	286.548194842	0.0
0.7373	287.387688118	0.0
0.7475	288.216743379	0.0
0.7578	289.051622977	0.0
0.768	289.876121926	0.0
0.7782	290.69836317	0.0
0.7885	291.526380881	0.0
0.7987	292.344103261	0.0
0.809	293.167570362	0.0
0.8192	293.980798713	0.0
0.8294	294.791800221	1.0
0.8397	295.608499234	0.0
0.8499	296.415043649	0.0
0.8602	297.227254258	0.0
0.8704	298.029366076	0.0
0.8806	298.829281491	1.0
0.8909	299.634816528	0.0
0.9011	300.430335778	0.0
0.9114	301.231443766	1.0
0.9216	302.02259101	0.0
0.9318	302.811571875	0.0
0.9421	303.606095545	0.0
0.9523	304.390740338	0.0
0.9626	305.180897474	0.0
0.9728	305.961230026	0.0
0.983	306.739425813	1.0
0.9933	307.523088635	0.0
1.0035	308.297007623	1.0
1.0138	309.076363601	0.0
1.024	309.846029294	1.0
1.0342	310.61358743	0.0
1.0445	311.38653787	0.0
1.0547	312.149877669	0.0
1.065	312.918580137	1.0
1.0752	313.677724782	0.0
1.0854	314.434790681	0.0
1.0957	315.197175172	1.0
1.1059	315.950080396	1.0
1.1162	316.708274984	0.0
1.1264	317.457042401	1.0
1.1366	318.203759487	0.0
1.1469	318.955722462	1.0
1.1571	319.698335749	0.0
1.1674	320.446166095	0.0
1.1776	321.184698136	0.0
1.1878	321.921207873	0.0
1.1981	322.662891791	0.0
1.2083	323.395353827	0.0
1.2186	324.132961607	0.0
1.2288	324.861398187	0.0
1.239	325.587840106	0.0
1.2493	326.319385477	0.0
1.2595	327.041835026	0.0
1.2698	327.769359979	0.0
1.28	328.487839098	0.0
1.2902	329.204350824	0.0
1.3005	329.925896238	0.0
1.3107	330.638470167	0.0
1.321	331.356050121	0.0
1.3312	332.064707894	1.0
1.3414	332.771425168	0.0
1.3517	333.483107321	0.0
1.3619	334.185940626	1.0
1.3722	334.893711526	1.0
1.3824	335.592682208	0.0
1.3926	336.289738916	1.0
1.4029	336.991692636	1.0
1.4131	337.684918468	0.0
1.4234	338.383014399	2.0
1.4336	339.072430409	0.0
1.4438	339.759958608	3.0
1.4541	340.452316878	0.0
1.4643	341.136066568	0.0
1.4746	341.824619784	1.0
1.4848	342.50461173	0.0
1.495	343.182741671	0.0
1.5053	343.865635658	1.0
1.5155	344.54003874	0.0
1.5258	345.219179687	1.0
1.536	345.889876393	0.0
1.5462	346.558736547	1.0
1.5565	347.232295624	1.0
1.5667	347.897479864	0.0
1.577	348.567337203	0.0
1.5872	349.228865732	1.0
1.5974	349.888582813	2.0
1.6077	350.552934585	0.0
1.6179	351.209026001	2.0
1.6282	351.869726636	0.0
1.6384	352.522212313	3.0
1.6486	353.172911303	3.0
1.6589	353.828181631	4.0
1.6691	354.475304518	1.0
1.6794	355.126973619	2.0
1.6896	355.770540056	1.0
1.6998	356.41234423	2.0
1.7101	357.058657253	3.0
1.7203	357.696934208	3.0
1.7306	358.339695231	1.0
1.7408	358.974464351	0.0
1.751	359.607495299	3.0
1.7613	360.24497346	1.0
1.7715	360.874525403	1.0
1.7818	361.50850012	1.0
1.792	362.134592179	6.0
1.8022	362.758969826	4.0
1.8125	363.387733895	3.0
1.8227	364.008680094	8.0
1.833	364.633988609	4.0
1.8432	365.25152222	2.0
1.8534	365.867364854	4.0
1.8637	366.487533949	8.0
1.8739	367.099992042	0.0
1.8842	367.716752819	3.0
1.8944	368.325844973	7.0
1.9046	368.933269264	1.0
1.9149	369.544960875	5.0
1.9251	370.149046891	6.0
1.9354	370.757376775	10.0
1.9456	371.358142862	11.0
1.9558	371.957263886	4.0
1.9661	372.560593898	7.0
1.9763	373.15642228	8.0
1.9866	373.756436518	4.0
1.9968	374.348990353	8.0
2.007	374.939921613	9.0
2.0173	375.535004325	9.0
2.0275	376.122687952	7.0
2.0378	376.714500216	7.0
2.048	377.298954058	7.0
2.0582	377.881807505	8.0
2.0685	378.468755655	16.0
2.0787	379.048405862	14.0
2.089	379.63212827	13.0
2.0992	380.208592843	20.0
2.1094	380.783478897	10.0
2.1197	381.362403681	13.0
2.1299	381.934130283	12.0
2.1402	382.50987342	22.0
2.1504	383.078457934	18.0
2.1606	383.645485507	18.0
2.1709	384.216496602	20.0
2.1811	384.780407912	22.0
2.1914	385.348280851	17.0
2.2016	385.909093023	26.0
2.2118	386.468369538	21.0
2.2221	387.031575121	19.0
2.2323	387.58777797	28.0
2.2426	388.147888295	17.0
2.2528	388.701034371	27.0
2.263	389.252665781	29.0
2.2733	389.808172551	20.0
2.2835	390.356772311	32.0
2.2938	390.909226133	30.0
2.304	391.454810906	28.0
2.3142	391.998901717	41.0
2.3245	392.546814913	20.0
2.3347	393.087915517	27.0
2.345	393.632817498	46.0
2.3552	394.170944327	29.0
2.3654	394.707597617	38.0
2.3757	395.248021041	44.0
2.3859	395.781724998	51.0
2.3962	396.319178369	48.0
2.4064	396.849949202	45.0
2.4166	397.379266639	46.0
2.4269	397.912302673	44.0
2.4371	398.438711093	43.0
2.4474	398.968817674	60.0
2.4576	399.492333065	47.0
2.4678	400.014414926	54.0
2.4781	400.540164554	49.0
2.4883	401.059377164	47.0
2.4986	401.582237383	57.0
2.5088	402.098596511	65.0
2.519	402.613541705	55.0
2.5293	403.132104528	59.0
2.5395	403.644219692	47.0
2.5498	404.159932604	74.0
2.56	404.669233292	47.0
2.5702	405.177139375	53.0
2.5805	405.688613635	61.0
2.5907	406.193728373	57.0
2.601	406.702391679	58.0
2.6112	407.204730414	56.0
2.6214	407.705693607	68.0
2.6317	408.210176201	47.0
2.6419	408.708386207	57.0
2.6522	409.210096272	45.0
2.6624	409.705568221	53.0
2.6726	410.199683431	49.0
2.6829	410.697269934	48.0
2.6931	411.188669591	55.0
2.7034	411.683521464	47.0
2.7136	412.172220494	62.0
2.7238	412.65958133	32.0
2.7341	413.150366008	29.0
2.7443	413.635048413	40.0
2.7546	414.123135843	44.0
2.7648	414.605154536	51.0
2.775	415.085853329	24.0
2.7853	415.569929161	31.0
2.7955	416.047986135	37.0
2.8058	416.529401589	32.0
2.816	417.004831264	35.0
2.8262	417.478959081	40.0
2.8365	417.956417774	36.0
2.8467	418.427939885	32.0
2.857	418.902774566	34.0
2.8672	419.371705292	36.0
2.8774	419.839351956	29.0
2.8877	420.310283964	32.0
2.8979	420.775360541	42.0
2.9082	421.243704407	35.0
2.9184	421.706225022	29.0
2.9286	422.167479127	42.0
2.9389	422.631973668	26.0
2.9491	423.090692819	25.0
2.9594	423.552634596	33.0
2.9696	424.008832724	37.0
2.9798	424.463781656	30.0
2.9901	424.921926727	48.0
3.0003	425.374375355	53.0
3.0106	425.830002558	35.0
3.0208	426.279964625	37.0
3.031	426.728694572	40.0
3.0413	427.180576968	34.0
3.0515	427.62684079	43.0
3.0618	428.076239737	49.0
3.072	428.520050987	37.0
3.0822	428.962646961	43.0
3.0925	429.408352291	45.0
3.1027	429.84851585	38.0
3.113	430.291771678	53.0
3.1232	430.729516192	48.0
3.1334	431.166062041	41.0
3.1437	431.605674743	57.0
3.1539	432.039821428	64.0
3.1642	432.477018111	44.0
3.1744	432.908778819	50.0
3.1846	433.339357246	43.0
3.1949	433.772960604	42.0
3.2051	434.201172664	57.0
3.2154	434.632393029	50.0
3.2256	435.058251726	56.0
3.2358	435.482944304	41.0
3.2461	435.910620463	64.0
3.2563	436.332979022	62.0
3.2666	436.758304763	64.0
3.2768	437.178342128	59.0
3.287	437.597229315	75.0
3.2973	438.019059298	60.0
3.3075	438.43564437	58.0
3.3178	438.855156064	60.0
3.328	439.269451673	57.0
3.3382	439.682612826	63.0
3.3485	440.098676548	62.0
3.3587	440.509567055	58.0
3.369	440.923344179	54.0
3.3792	441.331976519	96.0
3.3894	441.739489911	71.0
3.3997	442.149866194	72.0
3.4099	442.555139979	55.0
3.4202	442.963260922	56.0
3.4304	443.366307407	76.0
3.4406	443.768250241	74.0
3.4509	444.173016832	85.0
3.4611	444.572750673	63.0
3.4714	444.975292752	44.0
3.4816	445.37282974	64.0
3.4918	445.769278163	52.0
3.5021	446.168511743	64.0
3.5123	446.562781369	55.0
3.5226	446.959820846	51.0
3.5328	447.35192365	48.0
3.543	447.742952768	65.0
3.5533	448.136728972	77.0
3.5635	448.525609077	75.0
3.5738	448.91722117	64.0
3.584	449.303964072	53.0
3.5942	449.689647966	60.0
3.6045	450.078041394	60.0
3.6147	450.461605651	55.0
3.625	450.847864551	56.0
3.6352	451.22932082	50.0
3.6454	451.609732556	56.0
3.6557	451.992816789	60.0
3.6659	452.371137863	54.0
3.6762	452.752116745	45.0
3.6864	453.128358647	54.0
3.6966	453.503570295	48.0
3.7069	453.881417907	56.0
3.7171	454.254567471	37.0
3.7274	454.630338512	49.0
3.7376	455.001437326	59.0
3.7478	455.371519968	47.0
3.7581	455.744202541	51.0
3.7683	456.112251288	60.0
3.7786	456.482885677	39.0
3.7888	456.848911706	50.0
3.799	457.213935455	56.0
3.8093	457.581523595	48.0
3.8195	457.94454125	57.0
3.8298	458.310109203	52.0
3.84	458.671131791	59.0
3.8502	459.031165799	49.0
3.8605	459.393729144	49.0
3.8707	459.751784481	59.0
3.881	460.112355255	59.0
3.8912	460.468442796	66.0
3.9014	460.823555272	57.0
3.9117	461.181162509	63.0
3.9219	461.534323361	56.0
3.9322	461.889965265	50.0
3.9424	462.24118522	63.0
3.9526	462.591443439	55.0
3.9629	462.944162316	55.0
3.9731	463.29249559	55.0
3.9834	463.643275999	64.0
3.9936	463.989694906	62.0
4.0038	464.335165224	47.0
4.0141	464.683062564	49.0
4.0243	465.026634249	58.0
4.0346	465.372619619	58.0
4.0448	465.714303108	68.0
4.055	466.055050973	57.0
4.0653	466.398192684	53.0
4.0755	466.737067871	48.0
4.0858	467.078323748	49.0
4.096	467.415336548	57.0
4.1062	467.751426515	48.0
4.1165	468.089877605	46.0
4.1267	468.424120493	45.0
4.137	468.760711527	53.0
4.1472	469.093117487	47.0
4.1574	469.424613227	47.0
4.1677	469.758437815	60.0
4.1779	470.088111725	52.0
4.1882	470.420101684	49.0
4.1984	470.747963776	54.0
4.2086	471.074928091	63.0
4.2189	471.404189419	50.0
4.2291	471.729356808	50.0
4.2394	472.056808586	49.0
4.2496	472.380188924	44.0
4.2598	472.702683757	53.0
4.2701	473.027444204	53.0
4.2803	473.348166674	46.0
4.2906	473.671142307	46.0
4.3008	473.990102154	50.0
4.311	474.308188602	56.0
4.3213	474.628509692	47.0
4.3315	474.944848004	43.0
4.3418	475.263408678	46.0
4.352	475.578008462	46.0
4.3622	475.891746784	39.0
4.3725	476.207689203	55.0
4.3827	476.519703287	47.0
4.393	476.833909353	52.0
4.4032	477.144208673	45.0
4.4134	477.453658308	57.0
4.4237	477.765281911	51.0
4.4339	478.073030876	54.0
4.4442	478.382941861	57.0
4.4544	478.688999503	51.0
4.4646	478.994219075	41.0
4.4749	479.301582898	44.0
4.4851	479.605125048	53.0
4.4954	479.910799663	61.0
4.5056	480.21267361	43.0
4.5158	480.513720943	36.0
4.5261	480.816883215	48.0
4.5363	481.116276055	36.0
4.5466	481.417772211	39.0
4.5568	481.715519652	46.0
4.567	482.012451778	43.0
4.5773	482.311469933	43.0
4.5875	482.606770183	39.0
4.5978	482.904144997	34.0
4.608	483.19782234	43.0
4.6182	483.490695513	51.0
4.6285	483.785626199	38.0
4.6387	484.076889804	41.0
4.649	484.370199614	33.0
4.6592	484.659862495	56.0
4.6694	484.948732199	40.0
4.6797	485.239631291	47.0
4.6899	485.526913429	45.0
4.7002	485.816213802	39.0
4.7104	486.101917098	37.0
4.7206	486.386838059	44.0
4.7309	486.673760668	28.0
4.7411	486.957115765	44.0
4.7514	487.242461507	37.0
4.7616	487.524259344	41.0
4.7718	487.805285541	47.0
4.7821	488.088286023	50.0
4.7923	488.367767759	33.0
4.8026	488.64921293	42.0
4.8128	488.927158694	31.0
4.823	489.204343366	39.0
4.8333	489.483475336	42.0
4.8435	489.759136659	37.0
4.8538	490.036734578	37.0
4.864	490.310880926	38.0
4.8742	490.584276585	24.0
4.8845	490.859592923	46.0
4.8947	491.131486058	39.0
4.905	491.405289315	46.0
4.9152	491.675688183	42.0
4.9254	491.945346624	30.0
4.9357	492.216899488	35.0
4.9459	492.485075944	41.0
4.9562	492.755136411	37.0
4.9664	493.021839026	45.0
4.9766	493.287811335	43.0
4.9869	493.555652172	40.0
4.9971	493.820162753	44.0
5.0074	494.086531594	45.0
5.0176	494.349588481	40.0
5.0278	494.611925047	39.0
5.0381	494.876104597	40.0
5.0483	495.136999417	36.0
5.0586	495.399727093	41.0
5.0688	495.659188089	38.0
5.079	495.91793861	32.0
5.0893	496.178506924	48.0
5.0995	496.435835407	34.0
5.1098	496.694971692	31.0
5.12	496.950885952	39.0
5.1302	497.206099448	39.0
5.1405	497.463105889	52.0
5.1507	497.716916786	30.0
5.161	497.972510773	38.0
5.1712	498.224926779	41.0
5.1814	498.476651601	46.0
5.1917	498.730144857	27.0
5.2019	498.980486253	38.0
5.2122	499.232586364	52.0
5.2224	499.481551936	35.0
5.2326	499.729835772	39.0
5.2429	499.979863869	38.0
5.2531	500.226783189	44.0
5.2634	500.475437185	34.0
5.2736	500.720999489	27.0
5.2838	500.965889376	48.0
5.2941	501.212499681	35.0
5.3043	501.456043705	34.0
5.3146	501.701298691	33.0
5.3248	501.943504249	40.0
5.335	502.185046581	41.0
5.3453	502.428285814	33.0
5.3555	502.66850068	37.0
5.3658	502.910403122	44.0
5.376	503.149297818	24.0
5.3862	503.387538355	32.0
5.3965	503.627452597	34.0
5.4067	503.864383815	32.0
5.417	504.102979538	27.0
5.4272	504.338608632	32.0
5.4374	504.573592509	32.0
5.4477	504.810227211	38.0
5.4579	505.043919666	34.0
5.4682	505.279253873	34.0
5.4784	505.511662004	29.0
5.4886	505.743433737	32.0
5.4989	505.97683373	24.0
5.5091	506.207331695	36.0
5.5194	506.43944897	30.0
5.5296	506.668680167	26.0
5.5398	506.897283666	26.0
5.5501	507.127493166	40.0
5.5603	507.354840309	24.0
5.5706	507.583784626	25.0
5.5808	507.809882317	32.0
5.591	508.03536089	28.0
5.6013	508.262423511	24.0
5.6115	508.486662902	20.0
5.6218	508.712477635	31.0
5.632	508.935484653	23.0
5.6422	509.157881017	28.0
5.6525	509.381839775	22.0
5.6627	509.603013895	34.0
5.673	509.825741824	28.0
5.6832	510.045700418	25.0
5.6934	510.265056705	17.0
5.7037	510.48595403	21.0
5.7139	510.704104781	22.0
5.7242	510.923788101	21.0
5.7344	511.140739942	17.0
5.7446	511.357097709	32.0
5.7549	511.574975448	22.0
5.7651	511.790144159	18.0
5.7754	512.006824488	25.0
5.7856	512.220810677	20.0
5.7958	512.434210913	25.0
5.8061	512.649110344	19.0
5.8163	512.861337777	14.0
5.8266	513.075056166	21.0
5.8368	513.286117243	18.0
5.847	513.496600376	21.0
5.8573	513.70856221	18.0
5.8675	513.917888573	10.0
5.8778	514.128685509	14.0
5.888	514.336861459	14.0
5.8982	514.544467365	19.0
5.9085	514.753531759	13.0
5.9187	514.959996707	18.0
5.929	515.167912127	11.0
5.9392	515.373242387	7.0
5.9494	515.578010397	16.0
5.9597	515.784216957	14.0
5.9699	515.987859605	8.0
5.9802	516.192932898	8.0
5.9904	516.395456369	9.0
6.0006	516.597425275	12.0
6.0109	516.800813067	5.0
6.0211	517.001671995	9.0
6.0314	517.203942011	14.0
6.0416	517.403697061	13.0
6.0518	517.602905127	5.0
6.0621	517.803512682	12.0
6.0723	518.001625943	11.0
6.0826	518.201131002	13.0
6.0928	518.398155473	8.0
6.103	518.594640438	6.0
6.1133	518.792505762	9.0
6.1235	518.987910887	8.0
6.1338	519.184688785	9.0
6.144	519.379020005	3.0
6.1542	519.572819092	7.0
6.1645	519.76797967	5.0
6.1747	519.960713678	7.0
6.185	520.154801695	6.0
6.1952	520.346476478	4.0
6.2054	520.537626403	4.0
6.2157	520.730119207	3.0
6.2259	520.920218612	7.0
6.2362	521.111653517	8.0
6.2464	521.300708176	6.0
6.2566	521.489245152	2.0
6.2669	521.679106651	5.0
6.2771	521.866607467	1.0
6.2874	522.055425527	8.0
6.2976	522.241895878	0.0
6.3078	522.427855623	6.0
6.3181	522.615121784	4.0
6.3283	522.800059533	3.0
6.3386	522.98629652	6.0
6.3488	523.17021789	6.0
6.359	523.353635633	5.0
6.3693	523.538341935	4.0
6.3795	523.720751653	4.0
6.3898	523.904442848	6.0
6.4	524.085850081	4.0
6.4102	524.26676057	5.0
6.4205	524.448942005	3.0
6.4307	524.628858249	2.0
6.441	524.810038453	5.0
6.4512	524.988965916	2.0
6.4614	525.167403426	3.0
6.4717	525.347094507	1.0
6.4819	525.524551362	5.0
6.4922	525.7032549	3.0
6.5024	525.879736489	0.0
6.5126	526.055734824	3.0
6.5229	526.232969594	3.0
6.5331	526.408000679	3.0
6.5434	526.584261405	0.0
6.5536	526.758330556	4.0
6.5638	526.931923058	1.0
6.5741	527.106735094	4.0
6.5843	527.279373569	1.0
6.5946	527.453224875	3.0
6.6048	527.624914565	2.0
6.615	527.796134121	2.0
6.6253	527.968556541	1.0
6.6355	528.138835111	2.0
6.6458	528.310309933	1.0
6.656	528.479652688	0.0
6.6662	528.648531736	2.0
6.6765	528.818597205	3.0
6.6867	528.986548129	1.0
6.697	529.155678954	2.0
6.7072	529.322706856	1.0
6.7174	529.489277389	0.0
6.7277	529.657018125	1.0
6.7379	529.822673222	1.0
6.7482	529.989492091	0.0
6.7584	530.154236782	1.0
6.7686	530.318530358	2.0
6.7789	530.48397814	0.0
6.7891	530.647368792	1.0
6.7994	530.811907308	0.0
6.8096	530.9744	1.0
6.8198	531.136447743	1.0
6.8301	531.299633914	3.0
6.8403	531.460791077	1.0
6.8506	531.623080412	0.0
6.8608	531.783351888	1.0
6.871	531.943184498	2.0
6.8813	532.104139974	0.0
6.8915	532.263094177	3.0
6.9018	532.423165077	0.0
6.912	532.581245701	0.0
6.9222	532.738893457	0.0
6.9325	532.897648732	1.0
6.9427	533.054430089	0.0
6.953	533.212312878	1.0
6.9632	533.368232599	0.0
6.9734	533.523725368	0.0
6.9837	533.680310516	0.0
6.9939	533.83494873	0.0
7.0042	533.990673319	0.0
7.0144	534.144461675	1.0
7.0246	534.297828915	1.0
7.0349	534.452273601	1.0
7.0451	534.604797968	2.0
7.0554	534.758393859	1.0
7.0656	534.910079984	1.0
7.0758	535.06135075	2.0
7.0861	535.213684235	1.0
7.0963	535.364123649	2.0
7.1066	535.515619941	2.0
7.1168	535.665232572	1.0
7.127	535.814435523	3.0
7.1373	535.964686665	0.0
7.1475	536.113069627	1.0
7.1578	536.262495021	3.0
7.168	536.410062502	0.0
7.1782	536.557225903	1.0
7.1885	536.705423167	2.0
7.1987	536.851777789	1.0
7.209	536.999160592	0.0
7.2192	537.144710881	0.0
7.2294	537.289862612	0.0
7.2397	537.436034074	0.0
7.2499	537.580388082	2.0
7.2602	537.725756216	1.0
7.2704	537.869316885	1.0
7.2806	538.012484446	2.0
7.2909	538.156657797	3.0
7.3011	538.299038539	0.0
7.3114	538.442419545	0.0
7.3216	538.584017792	1.0
7.3318	538.725228305	1.0
7.3421	538.86743086	0.0
7.3523	539.007865309	0.0
7.3626	539.149286349	1.0
7.3728	539.288949	0.0
7.383	539.428229217	1.0
7.3933	539.568487915	0.0
7.4035	539.707002677	0.0
7.4138	539.846490543	1.0
7.424	539.984244058	2.0
7.4342	540.121620365	1.0
7.4445	540.259961778	1.0
7.4547	540.396583095	1.0
7.465	540.534164213	1.0
7.4752	540.670034687	2.0
7.4854	540.805533111	1.0
7.4957	540.941983448	0.0
7.5059	541.076737201	1.0
7.5162	541.212437635	2.0
7.5264	541.34645081	0.0
7.5366	541.480097021	0.0
7.5469	541.614682131	1.0
7.5571	541.74759385	1.0
7.5674	541.88143931	2.0
7.5776	542.013620574	2.0
7.5878	542.145439889	0.0
7.5981	542.278185271	1.0
7.6083	542.409280136	2.0
7.6186	542.541295977	1.0
7.6288	542.671670372	0.0
7.639	542.801687766	1.0
7.6493	542.932618567	0.0
7.6595	543.061921413	0.0
7.6698	543.192132646	1.0
7.68	543.320724871	0.0
7.6902	543.448964974	1.0
7.7005	543.578106	2.0
7.7107	543.705641323	1.0
7.721	543.834072617	0.0
7.7312	543.960907033	0.0
7.7414	544.087394142	2.0
7.7517	544.214769856	0.0
7.7619	544.340561819	0.0
7.7722	544.467237504	0.0
7.7824	544.59233814	0.0
7.7926	544.717096216	4.0
7.8029	544.842730752	2.0
7.8131	544.966803185	2.0
7.8234	545.091747259	0.0
7.8336	545.215137816	1.0
7.8438	545.338190495	2.0
7.8541	545.462107653	0.0
7.8643	545.584484061	3.0
7.8746	545.707720196	1.0
7.8848	545.829424049	0.0
7.895	545.950794644	0.0
7.9053	546.073017899	0.0
7.9155	546.193721467	0.0
7.9258	546.315273009	0.0
7.936	546.435313215	3.0
7.9462	546.555024718	0.0
7.9565	546.675577227	3.0
7.9667	546.794630821	0.0
7.977	546.914520798	1.0
7.9872	547.032920099	0.0
7.9974	547.150995189	4.0
8.0077	547.26989979	1.0
8.0179	547.387325965	1.0
8.0282	547.50557709	2.0
