TL-DOS Lehrstuhlversuch
detector=R1408303
job_number=2015-10-30-003
irradiation_dose [mSv]=0.2

[BEGIN DATA]
time [sec] 	 temperature [K] 	 photoncount 
0.0	189.159331868	0.0
0.0102	190.409262255	0.0
0.0205	191.667314926	0.0
0.0307	192.909075046	1.0
0.041	194.158904357	1.0
0.0512	195.392547616	1.0
0.0614	196.622172029	1.0
0.0717	197.859786774	1.0
0.0819	199.081373652	0.0
0.0922	200.310898632	0.0
0.1024	201.524500512	0.0
0.1126	202.734148836	0.0
0.1229	203.951657684	0.0
0.1331	205.153399048	1.0
0.1434	206.362949553	1.0
0.1536	207.556835642	0.0
0.1638	208.746832402	0.0
0.1741	209.944561985	1.0
0.1843	211.126780239	1.0
0.1946	212.31668077	0.0
0.2048	213.491171363	0.0
0.215	214.661835812	1.0
0.2253	215.84010746	2.0
0.2355	217.00311977	0.0
0.2458	218.173689553	0.0
0.256	219.329099743	0.0
0.2662	220.480745948	0.0
0.2765	221.639875767	0.0
0.2867	222.783994147	0.0
0.297	223.935547224	0.0
0.3072	225.072186986	0.0
0.3174	226.205123911	0.0
0.3277	227.345422874	0.0
0.3379	228.470954269	0.0
0.3482	229.603799579	1.0
0.3584	230.72197385	0.0
0.3686	231.83650544	0.0
0.3789	232.958279467	0.0
0.3891	234.065525834	0.0
0.3994	235.179967298	0.0
0.4096	236.279976064	0.0
0.4198	237.376401326	1.0
0.4301	238.479951367	0.0
0.4403	239.569209761	0.0
0.4506	240.665546361	1.0
0.4608	241.747684732	0.0
0.471	242.826297816	0.0
0.4813	243.911919932	0.0
0.4915	244.983482579	0.0
0.5018	246.062008441	0.0
0.512	247.126566735	0.0
0.5222	248.187657012	0.0
0.5325	249.255642455	0.0
0.5427	250.309796833	0.0
0.553	251.370801306	2.0
0.5632	252.418065122	0.0
0.5734	253.461917263	0.0
0.5837	254.512552551	0.0
0.5939	255.549581471	0.0
0.6042	256.593349201	0.0
0.6144	257.6235995	0.0
0.6246	258.650493549	0.0
0.6349	259.684060549	0.0
0.6451	260.704242226	0.0
0.6554	261.731053235	0.0
0.6656	262.744566414	0.0
0.6758	263.754777867	0.0
0.6861	264.771553865	0.0
0.6963	265.775161992	0.0
0.7066	266.785291754	0.0
0.7168	267.782339719	0.0
0.727	268.776139597	0.0
0.7373	269.776397373	1.0
0.7475	270.7637012	0.0
0.7578	271.757420714	0.0
0.768	272.738270953	0.0
0.7782	273.715925872	0.0
0.7885	274.699933777	0.0
0.7987	275.671198178	0.0
0.809	276.648774039	0.0
0.8192	277.613689695	0.0
0.8294	278.575461942	0.0
0.8397	279.543483966	0.0
0.8499	280.498969513	0.0
0.8602	281.460663985	0.0
0.8704	282.409903927	1.0
0.8806	283.356051526	1.0
0.8909	284.30834737	0.0
0.9011	285.248310402	0.0
0.9114	286.19438149	0.0
0.9216	287.12820038	1.0
0.9318	288.058977164	0.0
0.9421	288.995802311	0.0
0.9523	289.920495001	0.0
0.9626	290.851196517	0.0
0.9728	291.769844881	0.0
0.983	292.68550056	0.0
0.9933	293.607106342	2.0
1.0035	294.516776767	1.0
1.0138	295.432358401	1.0
1.024	296.336082694	0.0
1.0342	297.236862921	0.0
1.0445	298.143496587	0.0
1.0547	299.038388793	0.0
1.065	299.939096178	0.0
1.0752	300.828138852	0.0
1.0854	301.714285288	0.0
1.0957	302.60619007	0.0
1.1059	303.486544141	0.0
1.1162	304.372618919	0.0
1.1264	305.247218487	0.0
1.1366	306.118968868	1.0
1.1469	306.996384047	0.0
1.1571	307.862436164	0.0
1.1674	308.734116051	0.0
1.1776	309.594507151	0.0
1.1878	310.452095352	0.0
1.1981	311.315256322	0.0
1.2083	312.16723883	0.0
1.2186	313.024757681	0.0
1.2288	313.87117114	1.0
1.239	314.714827233	0.0
1.2493	315.563965563	0.0
1.2595	316.402107033	1.0
1.2698	317.245694905	0.0
1.28	318.078357798	0.0
1.2902	318.908308121	0.0
1.3005	319.743651619	2.0
1.3107	320.568176907	1.0
1.321	321.398060117	0.0
1.3312	322.217195832	0.0
1.3414	323.033663045	1.0
1.3517	323.855435816	0.0
1.3619	324.666566128	1.0
1.3722	325.482967318	2.0
1.3824	326.288795613	0.0
1.3926	327.091998758	1.0
1.4029	327.900421269	1.0
1.4131	328.698374214	0.0
1.4234	329.501512408	0.0
1.4336	330.294249472	1.0
1.4438	331.084404033	0.0
1.4541	331.879693167	0.0
1.4643	332.664682822	2.0
1.4746	333.454773487	0.0
1.4848	334.234631995	0.0
1.495	335.011949955	1.0
1.5053	335.794319073	4.0
1.5155	336.566556034	1.0
1.5258	337.343811136	2.0
1.536	338.11100031	3.0
1.5462	338.875690208	2.0
1.5565	339.645349205	2.0
1.5667	340.405040648	2.0
1.577	341.16966871	1.0
1.5872	341.924394371	2.0
1.5974	342.676661359	2.0
1.6077	343.43381672	3.0
1.6179	344.181166456	4.0
1.6282	344.933372612	2.0
1.6384	345.675837239	5.0
1.6486	346.415883135	3.0
1.6589	347.160737989	3.0
1.6691	347.895946518	3.0
1.6794	348.635932571	2.0
1.6896	349.366335352	3.0
1.6998	350.094358697	4.0
1.7101	350.827112875	2.0
1.7203	351.550377439	1.0
1.7306	352.278341912	3.0
1.7408	352.996878801	2.0
1.751	353.713074909	3.0
1.7613	354.433924994	3.0
1.7715	355.145439631	6.0
1.7818	355.861577824	4.0
1.792	356.568441589	9.0
1.8022	357.273002602	5.0
1.8125	357.982141985	8.0
1.8227	358.68209758	4.0
1.833	359.386601618	3.0
1.8432	360.081981898	4.0
1.8534	360.775096836	4.0
1.8637	361.472715765	5.0
1.8739	362.161300102	5.0
1.8842	362.854358991	5.0
1.8944	363.538442343	8.0
1.9046	364.220297154	5.0
1.9149	364.906582787	6.0
1.9251	365.583980601	5.0
1.9354	366.265780274	4.0
1.9456	366.938750225	10.0
1.9558	367.609527839	5.0
1.9661	368.284664292	11.0
1.9763	368.951057315	9.0
1.9866	369.621780687	8.0
1.9968	370.28381778	6.0
2.007	370.943698153	16.0
2.0173	371.607866553	5.0
2.0275	372.263433567	7.0
2.0378	372.923260578	3.0
2.048	373.574542427	7.0
2.0582	374.223702592	6.0
2.0685	374.877081122	10.0
2.0787	375.521998001	15.0
2.089	376.171105671	6.0
2.0992	376.811807001	11.0
2.1094	377.450421116	13.0
2.1197	378.093185065	8.0
2.1299	378.727624828	13.0
2.1402	379.366187301	9.0
2.1504	379.99648	13.0
2.1606	380.624719391	11.0
2.1709	381.2570412	16.0
2.1811	381.881174056	15.0
2.1914	382.509362645	12.0
2.2016	383.129415808	17.0
2.2118	383.747449021	13.0
2.2221	384.36949833	12.0
2.2323	384.983491721	14.0
2.2426	385.601474957	21.0
2.2528	386.211454932	14.0
2.263	386.819447773	17.0
2.2733	387.431391466	21.0
2.2835	388.035410115	16.0
2.2938	388.64335379	21.0
2.304	389.243424224	17.0
2.3142	389.841539805	20.0
2.3245	390.443542055	23.0
2.3347	391.037748007	29.0
2.345	391.635815222	15.0
2.3552	392.226137101	29.0
2.3654	392.814535886	33.0
2.3757	393.406758198	29.0
2.3859	393.991310868	24.0
2.3962	394.579662072	21.0
2.4064	395.160393769	23.0
2.4166	395.739233613	25.0
2.4269	396.321834868	22.0
2.4371	396.896891081	27.0
2.4474	397.475684118	27.0
2.4576	398.046981431	28.0
2.4678	398.616417627	32.0
2.4781	399.189554126	30.0
2.4883	399.755268157	45.0
2.4986	400.324658305	36.0
2.5088	400.886674503	23.0
2.519	401.446859818	38.0
2.5293	402.010685323	40.0
2.5395	402.567208944	29.0
2.5498	403.127348959	27.0
2.56	403.68023482	38.0
2.5702	404.231319542	28.0
2.5805	404.785985316	31.0
2.5907	405.33346783	41.0
2.601	405.884507988	40.0
2.6112	406.428411839	28.0
2.6214	406.970543813	34.0
2.6317	407.516198663	34.0
2.6419	408.054786949	31.0
2.6522	408.596875083	23.0
2.6624	409.131942845	35.0
2.6726	409.665267514	29.0
2.6829	410.202057827	33.0
2.6931	410.731896378	21.0
2.7034	411.26517792	23.0
2.7136	411.79155314	22.0
2.7238	412.316213585	21.0
2.7341	412.844283373	26.0
2.7443	413.365514335	30.0
2.7546	413.890132353	24.0
2.7648	414.407956248	21.0
2.775	414.924093226	25.0
2.7853	415.443584159	18.0
2.7955	415.956347367	17.0
2.8058	416.472442607	19.0
2.816	416.981854099	16.0
2.8262	417.489606079	14.0
2.8365	418.000657526	24.0
2.8467	418.505090546	20.0
2.857	419.012801466	21.0
2.8672	419.51393722	21.0
2.8774	420.013440421	22.0
2.8877	420.516189489	15.0
2.8979	421.012427649	17.0
2.9082	421.511890458	22.0
2.9184	422.004884919	20.0
2.9286	422.496273349	15.0
2.9389	422.990854915	18.0
2.9491	423.479031346	22.0
2.9594	423.970380041	31.0
2.9696	424.45536547	24.0
2.9798	424.938770959	25.0
2.9901	425.425317709	21.0
3.0003	425.905563381	26.0
3.0106	426.38892978	17.0
3.0208	426.866036289	26.0
3.031	427.341588525	35.0
3.0413	427.82023099	21.0
3.0515	428.292674743	16.0
3.0618	428.768188525	27.0
3.072	429.237544112	17.0
3.0822	429.705370678	24.0
3.0925	430.176237269	29.0
3.1027	430.64100585	31.0
3.113	431.108794584	37.0
3.1232	431.57052517	29.0
3.1334	432.030751573	37.0
3.1437	432.493968614	30.0
3.1539	432.951186712	24.0
3.1642	433.411375899	30.0
3.1744	433.865605355	24.0
3.1846	434.318355066	30.0
3.1949	434.774046829	33.0
3.2051	435.223837106	35.0
3.2154	435.676550206	35.0
3.2256	436.123400393	31.0
3.2358	436.568794876	28.0
3.2461	437.017083615	37.0
3.2563	437.459566742	31.0
3.2666	437.904925207	39.0
3.2768	438.344516008	29.0
3.287	438.782674752	39.0
3.2973	439.223680735	30.0
3.3075	439.658975421	25.0
3.3178	440.097098733	26.0
3.328	440.529548081	36.0
3.3382	440.960588637	35.0
3.3485	441.394430176	28.0
3.3587	441.822653202	36.0
3.369	442.253658902	27.0
3.3792	442.679082814	44.0
3.3894	443.103120822	26.0
3.3997	443.529914308	48.0
3.4099	443.951180558	44.0
3.4202	444.375184276	39.0
3.4304	444.793696886	32.0
3.4406	445.210846106	36.0
3.4509	445.630706041	36.0
3.4611	446.045128533	49.0
3.4714	446.46224402	48.0
3.4816	446.873957607	43.0
3.4918	447.284329953	38.0
3.5021	447.697368975	36.0
3.5123	448.10505889	26.0
3.5226	448.515398052	35.0
3.5328	448.92042307	37.0
3.543	449.324128636	26.0
3.5533	449.730457558	43.0
3.5635	450.131524271	25.0
3.5738	450.535197192	27.0
3.584	450.933642302	27.0
3.5942	451.330789396	29.0
3.6045	451.730517226	35.0
3.6147	452.125068337	26.0
3.625	452.522183315	28.0
3.6352	452.914155412	43.0
3.6454	453.304850579	37.0
3.6557	453.698084558	29.0
3.6659	454.086225916	31.0
3.6762	454.47688949	29.0
3.6864	454.862493732	25.0
3.6966	455.24684179	27.0
3.7069	455.633687413	22.0
3.7171	456.01552315	31.0
3.7274	456.399840127	33.0
3.7376	456.779179964	29.0
3.7478	457.157284025	38.0
3.7581	457.537845077	24.0
3.7683	457.913477631	31.0
3.7786	458.291551116	23.0
3.7888	458.664728318	27.0
3.799	459.03668982	26.0
3.8093	459.411068397	28.0
3.8195	459.780598544	30.0
3.8298	460.152529966	27.0
3.84	460.51964465	28.0
3.8502	460.885563383	29.0
3.8605	461.253859924	28.0
3.8707	461.617386801	22.0
3.881	461.983275943	26.0
3.8912	462.344426598	30.0
3.9014	462.704400731	28.0
3.9117	463.066714043	26.0
3.9219	463.424335177	32.0
3.9322	463.7842802	23.0
3.9424	464.139563716	30.0
3.9526	464.493689823	37.0
3.9629	464.850117108	27.0
3.9731	465.201928442	29.0
3.9834	465.556025912	21.0
3.9936	465.905537604	29.0
4.0038	466.25391069	35.0
4.0141	466.60454757	34.0
4.0243	466.950643488	30.0
4.0346	467.298988403	23.0
4.0448	467.642822038	26.0
4.055	467.985535566	20.0
4.0653	468.33047611	28.0
4.0755	468.670949463	30.0
4.0858	469.013635277	33.0
4.096	469.3518831	30.0
4.1062	469.689029012	39.0
4.1165	470.028365761	33.0
4.1267	470.363307892	33.0
4.137	470.70042654	27.0
4.1472	471.033179296	24.0
4.1574	471.364848042	26.0
4.1677	471.698672034	25.0
4.1779	472.028172801	28.0
4.1882	472.359814726	22.0
4.1984	472.687161686	31.0
4.2086	473.013442246	33.0
4.2189	473.341843039	23.0
4.2291	473.665990841	26.0
4.2394	473.992245016	25.0
4.2496	474.314274001	25.0
4.2598	474.635253911	22.0
4.2701	474.958319608	35.0
4.2803	475.277201407	29.0
4.2906	475.598155361	23.0
4.3008	475.914952764	31.0
4.311	476.230718136	21.0
4.3213	476.54853541	21.0
4.3315	476.862236757	23.0
4.3418	477.177976594	31.0
4.352	477.489627407	21.0
4.3622	477.800262954	26.0
4.3725	478.112917069	31.0
4.3827	478.421522123	29.0
4.393	478.73213255	22.0
4.4032	479.038720383	18.0
4.4134	479.344309443	23.0
4.4237	479.651884279	15.0
4.4339	479.955475833	25.0
4.4442	480.261040181	25.0
4.4544	480.562647285	24.0
4.4646	480.863271842	24.0
4.4749	481.165849914	15.0
4.4851	481.464509415	26.0
4.4954	481.765109662	16.0
4.5056	482.061816953	29.0
4.5158	482.357557658	16.0
4.5261	482.655220143	26.0
4.5363	482.949027716	28.0
4.5466	483.244744507	11.0
4.5568	483.536631584	21.0
4.567	483.82756778	19.0
4.5773	484.120394533	18.0
4.5875	484.409429002	35.0
4.5978	484.700341671	27.0
4.608	484.987486843	25.0
4.6182	485.273696582	17.0
4.6285	485.561766165	21.0
4.6387	485.846105071	18.0
4.649	486.132291664	28.0
4.6592	486.414771967	21.0
4.6694	486.696332032	17.0
4.6797	486.979721728	18.0
4.6899	487.259441354	21.0
4.7002	487.540978651	25.0
4.7104	487.818869868	28.0
4.7206	488.095855798	28.0
4.7309	488.374641634	14.0
4.7411	488.649817024	13.0
4.7514	488.926780555	24.0
4.7616	489.200157239	20.0
4.7718	489.472643343	24.0
4.7821	489.746900113	23.0
4.7923	490.01760509	25.0
4.8026	490.290069159	18.0
4.8128	490.559004652	21.0
4.823	490.827064033	20.0
4.8333	491.096865314	27.0
4.8435	491.363172504	16.0
4.8538	491.631210208	22.0
4.864	491.89577666	25.0
4.8742	492.159481233	24.0
4.8845	492.424899408	21.0
4.8947	492.686880255	27.0
4.905	492.950563504	14.0
4.9152	493.210831893	21.0
4.9254	493.470252405	17.0
4.9357	493.73135868	24.0
4.9459	493.98908347	22.0
4.9562	494.248483003	14.0
4.9664	494.504523155	24.0
4.9766	494.759729203	25.0
4.9869	495.016593628	14.0
4.9971	495.270131502	22.0
5.0074	495.525316913	19.0
5.0176	495.777197517	13.0
5.0278	496.028257569	14.0
5.0381	496.280949056	23.0
5.0483	496.530368034	21.0
5.0586	496.781407783	18.0
5.0688	497.029196414	18.0
5.079	497.276177824	18.0
5.0893	497.524764165	23.0
5.0995	497.770131161	18.0
5.1098	498.017092598	15.0
5.12	498.260855734	18.0
5.1302	498.503824761	18.0
5.1405	498.748372647	17.0
5.1507	498.989753489	22.0
5.161	499.232702869	19.0
5.1712	499.472505905	30.0
5.1814	499.711527735	27.0
5.1917	499.952102773	18.0
5.2019	500.189562218	24.0
5.2122	500.428564719	17.0
5.2224	500.664471992	13.0
5.2326	500.899610748	16.0
5.2429	501.136277481	27.0
5.2531	501.369879234	24.0
5.2634	501.604998976	21.0
5.2736	501.837073774	16.0
5.2838	502.068392541	20.0
5.2941	502.30121446	15.0
5.3043	502.531021194	29.0
5.3146	502.762321255	27.0
5.3248	502.990625839	22.0
5.335	503.218186674	16.0
5.3453	503.447226242	29.0
5.3555	503.673299608	20.0
5.3658	503.900842042	18.0
5.376	504.125437662	12.0
5.3862	504.349301615	23.0
5.3965	504.574620279	16.0
5.4067	504.797020929	12.0
5.417	505.02086678	20.0
5.4272	505.24181369	22.0
5.4374	505.462040821	12.0
5.4477	505.683699029	20.0
5.4579	505.902486628	16.0
5.4682	506.122695951	18.0
5.4784	506.340053427	13.0
5.4886	506.556702818	22.0
5.4989	506.774760037	11.0
5.5091	506.989993282	13.0
5.5194	507.206625153	13.0
5.5296	507.420451509	20.0
5.5398	507.633581282	15.0
5.5501	507.848096013	18.0
5.5603	508.059832646	9.0
5.5706	508.272945185	13.0
5.5808	508.483297785	15.0
5.591	508.69296512	22.0
5.6013	508.903994912	24.0
5.6115	509.112291739	20.0
5.6218	509.321942118	14.0
5.632	509.528877397	10.0
5.6422	509.735138542	15.0
5.6525	509.942740011	14.0
5.6627	510.147652914	18.0
5.673	510.35389738	10.0
5.6832	510.557470854	17.0
5.6934	510.760381145	13.0
5.7037	510.964609986	13.0
5.7139	511.166193939	9.0
5.7242	511.369087822	21.0
5.7344	511.569354106	13.0
5.7446	511.768967981	12.0
5.7549	511.969878985	13.0
5.7651	512.168188069	14.0
5.7754	512.367785802	12.0
5.7856	512.564798623	10.0
5.7958	512.761169634	6.0
5.8061	512.958816702	14.0
5.8163	513.153904119	5.0
5.8266	513.35025925	10.0
5.8368	513.544071463	8.0
5.847	513.737252293	5.0
5.8573	513.931688449	7.0
5.8675	514.123606537	10.0
5.8778	514.316771746	7.0
5.888	514.507435347	4.0
5.8982	514.697477822	10.0
5.9085	514.88875523	11.0
5.9187	515.077555478	3.0
5.929	515.267582585	7.0
5.9392	515.455148726	13.0
5.9494	515.642103831	6.0
5.9597	515.830273806	6.0
5.9699	516.016006865	4.0
5.9802	516.202946852	10.0
5.9904	516.387465853	4.0
6.0006	516.571383745	5.0
6.0109	516.75649677	8.0
6.0211	516.939212468	9.0
6.0314	517.123115487	7.0
6.0416	517.30463685	4.0
6.0518	517.485566871	4.0
6.0621	517.667672608	7.0
6.0723	517.847419965	7.0
6.0826	518.028335354	5.0
6.0928	518.206907778	7.0
6.103	518.384898467	4.0
6.1133	518.564045772	6.0
6.1235	518.74087301	8.0
6.1338	518.918849305	5.0
6.144	519.094520698	5.0
6.1542	519.269619806	2.0
6.1645	519.445856741	2.0
6.1747	519.6198113	2.0
6.185	519.794896248	5.0
6.1952	519.967713739	6.0
6.2054	520.139968242	3.0
6.2157	520.313342088	2.0
6.2259	520.484470636	7.0
6.2362	520.65671121	0.0
6.2464	520.826721163	6.0
6.2566	520.996177274	5.0
6.2669	521.166734542	3.0
6.2771	521.33508299	3.0
6.2874	521.504525398	3.0
6.2976	521.671773423	3.0
6.3078	521.838476604	1.0
6.3181	522.006263053	1.0
6.3283	522.171876565	1.0
6.3386	522.338566265	3.0
6.3488	522.503097232	2.0
6.359	522.667092205	5.0
6.3693	522.832152849	4.0
6.3795	522.995075856	1.0
6.3898	523.159057568	5.0
6.4	523.320915617	3.0
6.4102	523.48224638	3.0
6.4205	523.6446255	4.0
6.4307	523.804901712	6.0
6.441	523.966219429	3.0
6.4512	524.125447983	1.0
6.4614	524.284157817	4.0
6.4717	524.443898978	2.0
6.4819	524.601571393	1.0
6.4922	524.760268394	1.0
6.5024	524.916910171	1.0
6.5126	525.073041656	0.0
6.5229	525.230187712	4.0
6.5331	525.385298631	0.0
6.5434	525.54141749	0.0
6.5536	525.695514515	2.0
6.5638	525.849109537	1.0
6.5741	526.003702648	4.0
6.5843	526.156293684	2.0
6.5946	526.309876285	0.0
6.6048	526.461469898	2.0
6.615	526.612569664	0.0
6.6253	526.764651305	0.0
6.6355	526.914763395	1.0
6.6458	527.065850942	0.0
6.656	527.214981813	1.0
6.6662	527.36362686	0.0
6.6765	527.51323783	5.0
6.6867	527.660911247	1.0
6.697	527.809544274	6.0
6.7072	527.956252412	0.0
6.7174	528.102482618	2.0
6.7277	528.249663056	0.0
6.7379	528.394937417	2.0
6.7482	528.541155799	1.0
6.7584	528.685480563	0.0
6.7686	528.82933516	0.0
6.7789	528.974124551	1.0
6.7891	529.117038831	0.0
6.7994	529.260881795	1.0
6.8096	529.402861904	0.0
6.8198	529.544379485	2.0
6.8301	529.686816673	1.0
6.8403	529.827409213	0.0
6.8506	529.968915349	0.0
6.8608	530.108588895	1.0
6.871	530.247807426	0.0
6.8813	530.387930625	1.0
6.8915	530.526239142	2.0
6.9018	530.665446415	1.0
6.912	530.802850868	1.0
6.9222	530.939807699	0.0
6.9325	531.077654501	1.0
6.9427	531.213716102	0.0
6.953	531.350661857	3.0
6.9632	531.485834081	1.0
6.9734	531.620565955	3.0
6.9837	531.756173341	2.0
6.9939	531.890024528	0.0
7.0042	532.024745506	0.0
7.0144	532.157721765	0.0
7.0246	532.290264827	0.0
7.0349	532.423669178	1.0
7.0451	532.555345862	1.0
7.0554	532.687878206	0.0
7.0656	532.818694174	1.0
7.0758	532.949083983	1.0
7.0861	533.08032109	2.0
7.0963	533.209858596	0.0
7.1066	533.340237861	1.0
7.1168	533.468928635	2.0
7.127	533.597200172	1.0
7.1373	533.726305242	0.0
7.1475	533.853738323	1.0
7.1578	533.981999487	0.0
7.168	534.108599592	1.0
7.1782	534.23478727	1.0
7.1885	534.36179494	0.0
7.1987	534.487157783	1.0
7.209	534.613335258	1.0
7.2192	534.737878657	2.0
7.2294	534.86201633	1.0
7.2397	534.986960674	1.0
7.2499	535.110286912	0.0
7.2602	535.234414547	1.0
7.2704	535.356934653	0.0
7.2806	535.479055625	0.0
7.2909	535.601970162	1.0
7.3011	535.723292881	0.0
7.3114	535.845403978	0.0
7.3216	535.965933661	0.0
7.3318	536.086070695	2.0
7.3421	536.206988401	2.0
7.3523	536.32634015	1.0
7.3626	536.446467468	1.0
7.3728	536.565039065	1.0
7.383	536.68322439	0.0
7.3933	536.802177706	1.0
7.4035	536.919590503	1.0
7.4138	537.037766271	2.0
7.424	537.154411591	1.0
7.4342	537.270676915	1.0
7.4445	537.387697753	0.0
7.4547	537.503203099	0.0
7.465	537.619459021	0.0
7.4752	537.734209358	0.0
7.4854	537.848585872	2.0
7.4957	537.963705626	1.0
7.5059	538.077334509	1.0
7.5162	538.191701774	1.0
7.5264	538.304587913	0.0
7.5366	538.417106303	2.0
7.5469	538.530355858	1.0
7.5571	538.642138762	2.0
7.5674	538.754648053	0.0
7.5776	538.86570028	0.0
7.5878	538.976390731	0.0
7.5981	539.08780047	0.0
7.6083	539.197767384	2.0
7.6186	539.308448884	0.0
7.6288	539.417696992	0.0
7.639	539.526589201	8.0
7.6493	539.636189012	1.0
7.6595	539.744369439	0.0
7.6698	539.853252843	1.0
7.68	539.96072614	3.0
7.6902	540.067849321	2.0
7.7005	540.175668608	1.0
7.7107	540.28209157	0.0
7.721	540.389206088	0.0
7.7312	540.494933408	1.0
7.7414	540.6003163	0.0
7.7517	540.706383989	0.0
7.7619	540.811078037	0.0
7.7722	540.916452407	0.0
7.7824	541.020462114	2.0
7.7926	541.124132988	1.0
7.8029	541.228477536	0.0
7.8131	541.331470757	1.0
7.8234	541.435133249	3.0
7.8336	541.537453247	1.0
7.8438	541.639439917	1.0
7.8541	541.742089316	0.0
7.8643	541.843409342	0.0
7.8746	541.945387765	0.0
7.8848	542.046045506	0.0
7.895	542.146375333	0.0
7.9053	542.247357122	0.0
7.9155	542.347031135	0.0
7.9258	542.447352849	0.0
7.936	542.546375335	0.0
7.9462	542.645075236	0.0
7.9565	542.744416506	0.0
7.9667	542.842471247	1.0
7.977	542.941163166	0.0
7.9872	543.038576965	0.0
7.9974	543.135673418	1.0
8.0077	543.233400822	0.0
8.0179	543.329862596	3.0
8.0282	543.426951197	0.0
8.0384	543.522782442	1.0
8.0486	543.618301497	0.0
