TL-DOS Lehrstuhlversuch
detector=R1408304
job_number=2015-10-30-001
irradiation_dose [mSv]=0.4

[BEGIN DATA]
time [sec] 	 temperature [K] 	 photoncount 
0.0	233.946681169	0.0
0.0102	234.796516522	1.0
0.0205	235.652623534	0.0
0.0307	236.498383659	0.0
0.041	237.35038537	1.0
0.0512	238.19208981	2.0
0.0614	239.031783551	1.0
0.0717	239.877674108	2.0
0.0819	240.713341254	2.0
0.0922	241.5551755	1.0
0.1024	242.38683536	2.0
0.1126	243.216508515	0.0
0.1229	244.052304536	1.0
0.1331	244.877999148	2.0
0.1434	245.709787265	0.0
0.1536	246.531522412	1.0
0.1638	247.351294564	2.0
0.1741	248.177116513	1.0
0.1843	248.9929576	0.0
0.1946	249.814819474	1.0
0.2048	250.626748347	1.0
0.215	251.43673765	0.0
0.2253	252.252704554	1.0
0.2355	253.058809704	1.0
0.2458	253.870863792	0.0
0.256	254.673103414	0.0
0.2662	255.473426613	1.0
0.2765	256.279656079	0.0
0.2867	257.076141477	0.0
0.297	257.87850482	0.0
0.3072	258.67117082	0.0
0.3174	259.461943266	0.0
0.3277	260.258551497	0.0
0.3379	261.045531941	0.0
0.3482	261.838320185	0.0
0.3584	262.621526811	0.0
0.3686	263.40286248	0.0
0.3789	264.189964291	0.0
0.3891	264.96755321	0.0
0.3994	265.750880621	0.0
0.4096	266.524740757	0.0
0.4198	267.296752263	0.0
0.4301	268.074461101	0.0
0.4403	268.84277057	0.0
0.4506	269.61675005	0.0
0.4608	270.381375233	0.0
0.471	271.144173848	0.0
0.4813	271.912601805	0.0
0.4915	272.671742561	0.0
0.5018	273.436485664	0.0
0.512	274.191986102	0.0
0.5222	274.945681768	0.0
0.5325	275.704939598	0.0
0.5427	276.455021057	0.0
0.553	277.210638007	0.0
0.5632	277.95712259	0.0
0.5734	278.701823939	0.0
0.5837	279.452021075	0.0
0.5939	280.193151348	0.0
0.6042	280.939751053	0.0
0.6144	281.677327373	0.0
0.6246	282.41314174	0.0
0.6349	283.154386308	2.0
0.6451	283.886672214	0.0
0.6554	284.624362283	1.0
0.6656	285.353136648	1.0
0.6758	286.080170086	0.0
0.6861	286.812568924	0.0
0.6963	287.536116008	0.0
0.7066	288.265002764	0.0
0.7168	288.985080213	0.0
0.727	289.703437511	0.0
0.7373	290.42709618	0.0
0.7475	291.142008729	0.0
0.7578	291.862197228	0.0
0.768	292.573681547	0.0
0.7782	293.283466242	0.0
0.7885	293.998489044	0.0
0.7987	294.704870099	1.0
0.809	295.416464142	0.0
0.8192	296.119457878	0.0
0.8294	296.820772273	0.0
0.8397	297.527262265	0.0
0.8499	298.225213637	1.0
0.8602	298.928315788	0.0
0.8704	299.622920264	0.0
0.8806	300.31586544	0.0
0.8909	301.013924449	0.0
0.9011	301.703546735	0.0
0.9114	302.398258332	1.0
0.9216	303.084573663	0.0
0.9318	303.769249495	1.0
0.9421	304.458978134	0.0
0.9523	305.14037073	1.0
0.9626	305.826791903	0.0
0.9728	306.504917008	0.0
0.983	307.181422179	0.0
0.9933	307.862919859	0.0
1.0035	308.536180975	1.0
1.0138	309.214410659	0.0
1.024	309.884443277	1.0
1.0342	310.552875293	0.0
1.0445	311.226240239	0.0
1.0547	311.891466913	0.0
1.065	312.561602863	0.0
1.0752	313.223639566	1.0
1.0854	313.884094769	0.0
1.0957	314.549424033	1.0
1.1059	315.206712146	0.0
1.1162	315.868850948	0.0
1.1264	316.522987158	0.0
1.1366	317.175560739	1.0
1.1469	317.832950218	0.0
1.1571	318.482394504	0.0
1.1674	319.136631594	0.0
1.1776	319.78296159	0.0
1.1878	320.427747607	0.0
1.1981	321.07729205	0.0
1.2083	321.718986115	0.0
1.2186	322.365415788	0.0
1.2288	323.004032729	0.0
1.239	323.641124115	0.0
1.2493	324.282917142	0.0
1.2595	324.916953474	0.0
1.2698	325.555668902	2.0
1.28	326.186664831	0.0
1.2902	326.81615341	0.0
1.3005	327.450287523	1.0
1.3107	328.076757508	0.0
1.321	328.707850748	0.0
1.3312	329.331316612	1.0
1.3414	329.953293115	1.0
1.3517	330.579859713	0.0
1.3619	331.198853642	0.0
1.3722	331.822415657	0.0
1.3824	332.438441316	0.0
1.3926	333.052995388	0.0
1.4029	333.672084778	0.0
1.4131	334.28369187	1.0
1.4234	334.899812533	0.0
1.4336	335.508486777	0.0
1.4438	336.115706994	1.0
1.4541	336.727408407	2.0
1.4643	337.331716813	0.0
1.4746	337.940484926	1.0
1.4848	338.541895483	2.0
1.495	339.141869365	0.0
1.5053	339.746270966	0.0
1.5155	340.343367786	0.0
1.5258	340.944871092	0.0
1.536	341.539104644	1.0
1.5462	342.131918666	0.0
1.5565	342.729107569	1.0
1.5667	343.319078862	0.0
1.577	343.913404056	0.0
1.5872	344.500546252	0.0
1.5974	345.086285857	0.0
1.6077	345.676348135	0.0
1.6179	346.259278935	1.0
1.6282	346.846511679	0.0
1.6384	347.426647143	2.0
1.6486	348.005396754	1.0
1.6589	348.588417453	2.0
1.6691	349.164391779	1.0
1.6794	349.744616711	1.0
1.6896	350.317829059	1.0
1.6998	350.889672093	0.0
1.7101	351.465735245	0.0
1.7203	352.034836112	0.0
1.7306	352.608136861	0.0
1.7408	353.174508711	1.0
1.751	353.739527588	0.0
1.7613	354.308716221	2.0
1.7715	354.871025655	3.0
1.7818	355.437484851	0.0
1.792	355.997097835	3.0
1.8022	356.555373992	0.0
1.8125	357.117770145	0.0
1.8227	357.673369192	4.0
1.833	358.233068479	3.0
1.8432	358.786003254	2.0
1.8534	359.337617156	1.0
1.8637	359.893301887	0.0
1.8739	360.442270627	6.0
1.8842	360.995290676	3.0
1.8944	361.541626938	5.0
1.9046	362.08665809	2.0
1.9149	362.635711491	3.0
1.9251	363.178129047	2.0
1.9354	363.724549564	2.0
1.9456	364.264366058	4.0
1.9558	364.802893015	2.0
1.9661	365.345394222	2.0
1.9763	365.881338773	5.0
1.9866	366.421238516	6.0
1.9968	366.954613045	1.0
2.007	367.486713426	7.0
2.0173	368.02274063	6.0
2.0275	368.552289423	4.0
2.0378	369.085746208	4.0
2.048	369.612755649	6.0
2.0582	370.138506146	3.0
2.0685	370.668136606	11.0
2.0787	371.191365965	5.0
2.089	371.71845668	14.0
2.0992	372.23917699	16.0
2.1094	372.758653381	4.0
2.1197	373.281963432	11.0
2.1299	373.798948771	6.0
2.1402	374.319749387	9.0
2.1504	374.834255619	8.0
2.1606	375.347532776	10.0
2.1709	375.864597845	8.0
2.1811	376.375413677	6.0
2.1914	376.889999256	9.0
2.2016	377.398365567	7.0
2.2118	377.90551747	10.0
2.2221	378.416412081	14.0
2.2323	378.921132032	26.0
2.2426	379.429576742	17.0
2.2528	379.931876402	11.0
2.263	380.432976148	15.0
2.2733	380.937773937	20.0
2.2835	381.436470752	15.0
2.2938	381.938847877	8.0
2.304	382.435153284	16.0
2.3142	382.930273096	18.0
2.3245	383.42904682	18.0
2.3347	383.921792377	17.0
2.345	384.418174325	16.0
2.3552	384.908557012	19.0
2.3654	385.397768253	19.0
2.3757	385.890589801	26.0
2.3859	386.37745512	19.0
2.3962	386.867913434	37.0
2.4064	387.352444082	35.0
2.4166	387.835817262	21.0
2.4269	388.322757665	24.0
2.4371	388.803812919	28.0
2.4474	389.28841829	22.0
2.4576	389.767166733	30.0
2.4678	390.244771521	26.0
2.4781	390.725900963	22.0
2.4883	391.201215487	20.0
2.4986	391.680037762	29.0
2.5088	392.153073003	31.0
2.519	392.624978238	36.0
2.5293	393.100366064	53.0
2.5395	393.570008365	43.0
2.5498	394.043116557	40.0
2.56	394.510506776	47.0
2.5702	394.976780473	40.0
2.5805	395.446495202	44.0
2.5907	395.91053297	49.0
2.601	396.377995269	46.0
2.6112	396.839807831	48.0
2.6214	397.300517195	54.0
2.6317	397.764626527	49.0
2.6419	398.223126646	53.0
2.6522	398.685010428	44.0
2.6624	399.141311894	53.0
2.6726	399.596523328	48.0
2.6829	400.055094156	60.0
2.6931	400.508122709	53.0
2.7034	400.964494545	54.0
2.7136	401.415350684	46.0
2.7238	401.865129798	72.0
2.7341	402.318228216	66.0
2.7443	402.765850498	63.0
2.7546	403.216776167	53.0
2.7648	403.66225196	71.0
2.775	404.106663581	80.0
2.7853	404.554354895	54.0
2.7955	404.996635423	62.0
2.8058	405.442179917	69.0
2.816	405.882339571	59.0
2.8262	406.321447754	75.0
2.8365	406.76379649	63.0
2.8467	407.20079901	60.0
2.857	407.641026546	68.0
2.8672	408.075933502	61.0
2.8774	408.509801534	66.0
2.8877	408.946871449	58.0
2.8979	409.378658948	47.0
2.9082	409.813632975	58.0
2.9184	410.243349918	58.0
2.9286	410.672040334	67.0
2.9389	411.103894423	53.0
2.9491	411.530529134	59.0
2.9594	411.960312347	56.0
2.9696	412.384901211	49.0
2.9798	412.808475799	69.0
2.9901	413.235176305	51.0
3.0003	413.65671972	55.0
3.0106	414.081374064	45.0
3.0208	414.500896046	42.0
3.031	414.919415856	51.0
3.0413	415.341024281	45.0
3.0515	415.757537157	41.0
3.0618	416.177123838	47.0
3.072	416.591639404	49.0
3.0822	417.005164758	38.0
3.0925	417.421741869	42.0
3.1027	417.833284239	45.0
3.113	418.247863731	42.0
3.1232	418.657432627	40.0
3.1334	419.066023126	41.0
3.1437	419.477628964	42.0
3.1539	419.884260144	33.0
3.1642	420.293892203	49.0
3.1744	420.698573459	41.0
3.1846	421.102287995	31.0
3.1949	421.508981886	33.0
3.2051	421.910760484	43.0
3.2154	422.31550415	40.0
3.2256	422.715356094	41.0
3.2358	423.114252854	32.0
3.2461	423.516093415	28.0
3.2563	423.91307734	34.0
3.2666	424.312990949	28.0
3.2768	424.708071212	46.0
3.287	425.10220769	44.0
3.2973	425.499252838	45.0
3.3075	425.891499309	34.0
3.3178	426.286640501	47.0
3.328	426.677006026	43.0
3.3382	427.06643903	27.0
3.3485	427.458745992	27.0
3.3587	427.846311543	50.0
3.369	428.23673727	26.0
3.3792	428.622444322	54.0
3.3894	429.00722998	39.0
3.3997	429.394855301	42.0
3.4099	429.777795791	38.0
3.4202	430.163562327	53.0
3.4304	430.544666497	58.0
3.4406	430.92486027	48.0
3.4509	431.307859818	46.0
3.4611	431.686230442	57.0
3.4714	432.067393386	42.0
3.4816	432.443949605	68.0
3.4918	432.81960629	39.0
3.5021	433.198035267	58.0
3.5123	433.57189056	59.0
3.5226	433.948504851	54.0
3.5328	434.320567391	56.0
3.543	434.691741132	46.0
3.5533	435.065654081	66.0
3.5635	435.435047928	50.0
3.5738	435.807167847	74.0
3.584	436.174790334	66.0
3.5942	436.541534629	80.0
3.6045	436.910985444	70.0
3.6147	437.275971085	54.0
3.625	437.643650266	62.0
3.6352	438.006885687	75.0
3.6454	438.369253395	65.0
3.6557	438.734295324	71.0
3.6659	439.094925365	64.0
3.6762	439.458216804	77.0
3.6864	439.817117511	61.0
3.6966	440.175160861	67.0
3.7069	440.535846518	71.0
3.7171	440.892172938	59.0
3.7274	441.251128994	65.0
3.7376	441.605746717	67.0
3.7478	441.959517314	67.0
3.7581	442.315898686	62.0
3.7683	442.667972842	55.0
3.7786	443.022645253	68.0
3.7888	443.373031103	69.0
3.799	443.722579936	69.0
3.8093	444.074708389	59.0
3.8195	444.422581026	68.0
3.8298	444.773020912	65.0
3.84	445.11922539	78.0
3.8502	445.46460284	61.0
3.8605	445.812529126	67.0
3.8707	446.156250383	81.0
3.881	446.502508253	69.0
3.8912	446.844581259	54.0
3.9014	447.185837106	79.0
3.9117	447.529611372	62.0
3.9219	447.86923079	66.0
3.9322	448.21135655	80.0
3.9424	448.549347387	71.0
3.9526	448.886530817	54.0
3.9629	449.226202612	68.0
3.9731	449.561769141	85.0
3.9834	449.899812103	61.0
3.9936	450.233769486	67.0
4.0038	450.566929097	44.0
4.0141	450.902547377	63.0
4.0243	451.234109384	70.0
4.0346	451.568118269	60.0
4.0448	451.898090332	64.0
4.055	452.227274143	58.0
4.0653	452.558887283	53.0
4.0755	452.886492554	53.0
4.0858	453.216515505	52.0
4.096	453.542549806	63.0
4.1062	453.867805263	52.0
4.1165	454.195461058	58.0
4.1267	454.519156813	64.0
4.137	454.845241395	63.0
4.1472	455.167384927	63.0
4.1574	455.48875891	60.0
4.1677	455.812504585	51.0
4.1779	456.132337478	62.0
4.1882	456.454530691	54.0
4.1984	456.772829885	41.0
4.2086	457.090368712	71.0
4.2189	457.410250929	61.0
4.2291	457.726267058	51.0
4.2394	458.04461534	42.0
4.2496	458.359116073	61.0
4.2598	458.672865513	36.0
4.2701	458.988930377	54.0
4.2803	459.30117529	55.0
4.2906	459.615724525	61.0
4.3008	459.926472125	54.0
4.311	460.236477399	63.0
4.3213	460.548770466	66.0
4.3315	460.857289166	48.0
4.3418	461.16808469	60.0
4.352	461.475123947	56.0
4.3622	461.781429735	53.0
4.3725	462.089996016	52.0
4.3827	462.394832972	44.0
4.393	462.70191958	59.0
4.4032	463.005294747	54.0
4.4134	463.307945199	54.0
4.4237	463.612829167	58.0
4.4339	463.914028315	42.0
4.4442	464.217450268	58.0
4.4544	464.517205072	51.0
4.4646	464.816243808	57.0
4.4749	465.117489407	55.0
4.4851	465.415094159	53.0
4.4954	465.71489519	64.0
4.5056	466.011072834	53.0
4.5158	466.306542956	62.0
4.5261	466.604193604	43.0
4.5363	466.898246854	67.0
4.5466	467.194470174	51.0
4.5568	467.487113346	49.0
4.567	467.779057441	67.0
4.5773	468.073156039	64.0
4.5875	468.36370017	55.0
4.5978	468.656388473	56.0
4.608	468.945539354	68.0
4.6182	469.233999498	50.0
4.6285	469.524588436	54.0
4.6387	469.811665323	45.0
4.649	470.100860796	52.0
4.6592	470.38656106	51.0
4.6694	470.67157883	68.0
4.6797	470.958699991	52.0
4.6899	471.242351012	54.0
4.7002	471.528095336	68.0
4.7104	471.810386161	50.0
4.7206	472.092002638	51.0
4.7309	472.375697404	65.0
4.7411	472.655963442	45.0
4.7514	472.938297802	52.0
4.7616	473.217219876	40.0
4.7718	473.495475649	47.0
4.7821	473.775784909	41.0
4.7923	474.052706359	62.0
4.8026	474.331671448	55.0
4.8128	474.607264972	48.0
4.823	474.882200147	50.0
4.8333	475.159164303	51.0
4.8435	475.432781078	50.0
4.8538	475.708417104	52.0
4.864	475.9807218	39.0
4.8742	476.252376003	57.0
4.8845	476.526034974	45.0
4.8947	476.79638651	46.0
4.905	477.068733201	62.0
4.9152	477.337788316	41.0
4.9254	477.606200701	50.0
4.9357	477.876593931	58.0
4.9459	478.143719194	40.0
4.9562	478.412815803	48.0
4.9664	478.678660117	54.0
4.9766	478.943869371	44.0
4.9869	479.21103583	45.0
4.9971	479.474973323	46.0
5.0074	479.740858635	69.0
5.0176	480.003530464	55.0
5.0278	480.265574812	51.0
5.0381	480.529553009	57.0
5.0483	480.790340771	46.0
5.0586	481.05305311	47.0
5.0688	481.312590313	49.0
5.079	481.571507523	27.0
5.0893	481.832335505	37.0
5.0995	482.090011125	43.0
5.1098	482.349588355	51.0
5.12	482.60602834	54.0
5.1302	482.861855731	46.0
5.1405	483.11957109	55.0
5.1507	483.374171708	55.0
5.161	483.630651241	42.0
5.1712	483.88403097	38.0
5.1814	484.136805414	45.0
5.1917	484.391445296	55.0
5.2019	484.643007607	47.0
5.2122	484.896426411	40.0
5.2224	485.146782402	66.0
5.2326	485.396540332	41.0
5.2429	485.648141439	52.0
5.2531	485.896701702	39.0
5.2634	486.147096302	50.0
5.2736	486.39446464	46.0
5.2838	486.641242054	43.0
5.2941	486.889840649	49.0
5.3043	487.135434688	43.0
5.3146	487.382841174	37.0
5.3248	487.627257513	49.0
5.335	487.871089979	39.0
5.3453	488.116721893	49.0
5.3555	488.359385106	56.0
5.3658	488.603839138	48.0
5.376	488.845338704	47.0
5.3862	489.086261367	52.0
5.3965	489.328962003	34.0
5.4067	489.568729366	57.0
5.417	489.810266176	35.0
5.4272	490.048883779	36.0
5.4374	490.286931362	44.0
5.4477	490.526735701	36.0
5.4579	490.763641771	41.0
5.4682	491.002296173	49.0
5.4784	491.238066204	42.0
5.4886	491.473273018	41.0
5.4989	491.710215624	48.0
5.5091	491.944294547	37.0
5.5194	492.180100938	37.0
5.5296	492.41305738	43.0
5.5398	492.645457325	58.0
5.5501	492.879572347	36.0
5.5603	493.110857862	42.0
5.5706	493.343850229	48.0
5.5808	493.574026657	47.0
5.591	493.80365323	47.0
5.6013	494.034974413	28.0
5.6115	494.263499854	42.0
5.6218	494.493711779	41.0
5.632	494.721141369	46.0
5.6422	494.948027666	48.0
5.6525	495.17658835	43.0
5.6627	495.402386655	51.0
5.673	495.629851319	46.0
5.6832	495.854566851	46.0
5.6934	496.078745573	61.0
5.7037	496.304578701	37.0
5.7139	496.527682415	41.0
5.7242	496.752432602	53.0
5.7344	496.974466464	41.0
5.7446	497.195969923	45.0
5.7549	497.419108044	38.0
5.7651	497.639549323	48.0
5.7754	497.861617427	47.0
5.7856	498.081001622	36.0
5.7958	498.299861742	56.0
5.8061	498.520337018	41.0
5.8163	498.738147635	51.0
5.8266	498.957565663	36.0
5.8368	499.17433181	54.0
5.847	499.390580137	39.0
5.8573	499.608424345	48.0
5.8675	499.823635693	44.0
5.8778	500.04043527	46.0
5.888	500.254614612	49.0
5.8982	500.468282314	45.0
5.9085	500.683526852	47.0
5.9187	500.89616995	41.0
5.929	501.110382322	47.0
5.9392	501.32200573	48.0
5.9494	501.533123603	46.0
5.9597	501.745799494	35.0
5.9699	501.95590499	46.0
5.9802	502.167561034	42.0
5.9904	502.376659009	41.0
6.0006	502.585257481	38.0
6.0109	502.795395379	43.0
6.0211	503.002993557	39.0
6.0314	503.212123778	30.0
6.0416	503.418726457	38.0
6.0518	503.624835594	33.0
6.0621	503.832465787	44.0
6.0723	504.037586566	27.0
6.0826	504.244221107	34.0
6.0928	504.448358268	46.0
6.103	504.652007778	36.0
6.1133	504.857160191	31.0
6.1235	505.059833137	35.0
6.1338	505.26400178	26.0
6.144	505.465702845	34.0
6.1542	505.666922079	44.0
6.1645	505.869626281	41.0
6.1747	506.069880606	34.0
6.185	506.271612778	35.0
6.1952	506.47090682	34.0
6.2054	506.66972478	19.0
6.2157	506.870009987	30.0
6.2259	507.067874553	29.0
6.2362	507.26719933	41.0
6.2464	507.464115072	29.0
6.2566	507.660560415	37.0
6.2669	507.858455495	29.0
6.2771	508.05395882	28.0
6.2874	508.250904931	33.0
6.2976	508.445470756	23.0
6.3078	508.639571794	19.0
6.3181	508.83510527	35.0
6.3283	509.028275532	30.0
6.3386	509.222871363	24.0
6.3488	509.415115314	27.0
6.359	509.606900024	20.0
6.3693	509.800100078	26.0
6.3795	509.99096512	25.0
6.3898	510.183238719	26.0
6.4	510.373188503	18.0
6.4102	510.562684528	25.0
6.4205	510.753579005	26.0
6.4307	510.942166337	23.0
6.441	511.132145415	22.0
6.4512	511.319828411	12.0
6.4614	511.507063063	21.0
6.4717	511.695679478	23.0
6.4819	511.88201628	16.0
6.4922	512.069728221	14.0
6.5024	512.255171479	14.0
6.5126	512.440171743	16.0
6.5229	512.626537282	20.0
6.5331	512.810650412	16.0
6.5434	512.99612227	14.0
6.5536	513.179352519	22.0
6.5638	513.36214506	14.0
6.5741	513.546286584	14.0
6.5843	513.728202578	18.0
6.5946	513.911461085	13.0
6.6048	514.092504734	17.0
6.615	514.273115899	11.0
6.6253	514.455059947	13.0
6.6355	514.634805025	9.0
6.6458	514.815876595	7.0
6.656	514.994759738	19.0
6.6662	515.173215558	13.0
6.6765	515.352988355	14.0
6.6867	515.530588423	10.0
6.697	515.709499154	11.0
6.7072	515.886247574	19.0
6.7174	516.06257377	6.0
6.7277	516.240201227	9.0
6.7379	516.415681884	13.0
6.7482	516.592457562	10.0
6.7584	516.767096734	12.0
6.7686	516.94131872	8.0
6.7789	517.116826439	6.0
6.7891	517.290212976	4.0
6.7994	517.46487908	8.0
6.8096	517.637434175	8.0
6.8198	517.809577062	5.0
6.8301	517.982990339	9.0
6.8403	518.154307747	3.0
6.8506	518.326889452	10.0
6.8608	518.49738534	5.0
6.871	518.667473939	7.0
6.8813	518.838817768	12.0
6.8915	519.008090739	6.0
6.9018	519.178612921	7.0
6.912	519.347074175	6.0
6.9222	519.515133002	2.0
6.9325	519.684432079	8.0
6.9427	519.851685011	0.0
6.953	520.020172245	10.0
6.9632	520.186623147	5.0
6.9734	520.352676424	1.0
6.9837	520.51995515	2.0
6.9939	520.685212149	4.0
7.0042	520.851688721	4.0
7.0144	521.016153261	5.0
7.0246	521.180224922	4.0
7.0349	521.345507407	2.0
7.0451	521.508792292	5.0
7.0554	521.673282196	4.0
7.0656	521.835784079	3.0
7.0758	521.99789777	4.0
7.0861	522.161207837	3.0
7.0963	522.322544143	3.0
7.1066	522.485071087	3.0
7.1168	522.645633734	4.0
7.127	522.805812823	5.0
7.1373	522.967174009	2.0
7.1475	523.126584989	4.0
7.1578	523.287172398	2.0
7.168	523.445818952	4.0
7.1782	523.604086524	1.0
7.1885	523.763522088	1.0
7.1987	523.921030717	2.0
7.209	524.079701737	2.0
7.2192	524.236455064	2.0
7.2294	524.392833931	3.0
7.2397	524.550366851	3.0
7.2499	524.705995833	3.0
7.2602	524.862773333	3.0
7.2704	525.017656025	1.0
7.2806	525.172168726	3.0
7.2909	525.327821709	1.0
7.3011	525.481593473	2.0
7.3114	525.636500051	2.0
7.3216	525.789534432	0.0
7.3318	525.942203237	1.0
7.3421	526.095998716	2.0
7.3523	526.247935427	1.0
7.3626	526.400993408	1.0
7.3728	526.552201535	0.0
7.383	526.703048449	4.0
7.3933	526.855008591	0.0
7.4035	527.005132147	2.0
7.4138	527.156363593	0.0
7.424	527.305767259	1.0
7.4342	527.454814024	2.0
7.4445	527.604960732	5.0
7.4547	527.75329277	0.0
7.465	527.902719477	2.0
7.4752	528.050340217	2.0
7.4854	528.197608314	1.0
7.4957	528.345963228	1.0
7.5059	528.492525129	0.0
7.5162	528.640168635	0.0
7.5264	528.786027725	0.0
7.5366	528.93153838	2.0
7.5469	529.078122884	2.0
7.5571	529.22293577	3.0
7.5674	529.368817354	2.0
7.5776	529.512935818	2.0
7.5878	529.656710005	1.0
7.5981	529.801545224	2.0
7.6083	529.944629969	1.0
7.6186	530.088770658	1.0
7.6288	530.231169266	0.0
7.639	530.373227706	1.0
7.6493	530.516334517	1.0
7.6595	530.657711743	2.0
7.6698	530.800132312	3.0
7.68	530.94083159	1.0
7.6902	531.081194759	1.0
7.7005	531.222593788	1.0
7.7107	531.362283871	1.0
7.721	531.503004847	0.0
7.7312	531.642025073	1.0
7.7414	531.780713202	0.0
7.7517	531.920424828	1.0
7.7619	532.058447904	1.0
7.7722	532.197489569	0.0
7.7824	532.334850781	0.0
7.7926	532.471883858	0.0
7.8029	532.609928219	0.0
7.8131	532.74630418	2.0
7.8234	532.883686575	1.0
7.8336	533.01940857	0.0
7.8438	533.154806346	1.0
7.8541	533.291203339	0.0
7.8643	533.42595184	0.0
7.8746	533.561694766	1.0
7.8848	533.695797107	0.0
7.895	533.829579098	0.0
7.9053	533.96434838	2.0
7.9155	534.097488845	2.0
7.9258	534.231611866	0.0
7.936	534.364113881	0.0
7.9462	534.496299368	1.0
7.9565	534.629460365	0.0
7.9667	534.761011982	0.0
7.977	534.893534431	0.0
7.9872	535.024455216	1.0
7.9974	535.155063253	1.0
8.0077	535.286635157	3.0
8.0179	535.416616887	1.0
