TL-DOS Lehrstuhlversuch
detector=R1406806
job_number=2015-10-21-011
irradiation_dose [mSv]=3.0

[BEGIN DATA]
time [sec] 	 temperature [K] 	 photoncount 
0.0	117.581483418	0.0
0.0102	119.443408374	0.0
0.0205	121.315414273	2.0
0.0307	123.161186612	1.0
0.041	125.016952439	3.0
0.0512	126.84671229	2.0
0.0614	128.668556779	0.0
0.0717	130.500265204	1.0
0.0819	132.306304784	2.0
0.0922	134.122122728	1.0
0.1024	135.912494509	1.0
0.1126	137.695121317	6.0
0.1229	139.487399728	2.0
0.1331	141.254561849	2.0
0.1434	143.031291842	0.0
0.1536	144.783123436	2.0
0.1638	146.527376778	0.0
0.1741	148.281073958	3.0
0.1843	150.010195511	4.0
0.1946	151.748678975	1.0
0.2048	153.462800011	2.0
0.215	155.169505928	1.0
0.2253	156.885452391	3.0
0.2355	158.577352251	0.0
0.2458	160.278412494	0.0
0.256	161.955634743	0.0
0.2662	163.625601494	0.0
0.2765	165.304609876	0.0
0.2867	166.960089291	0.0
0.297	168.624531898	0.0
0.3072	170.265649657	0.0
0.3174	171.899668103	0.0
0.3277	173.542533546	0.0
0.3379	175.162376515	1.0
0.3482	176.790989731	0.0
0.3584	178.396780199	0.0
0.3686	179.995624175	0.0
0.3789	181.603124705	1.0
0.3891	183.188098351	0.0
0.3994	184.781653453	0.0
0.4096	186.352877097	1.0
0.4198	187.917303782	0.0
0.4301	189.490200677	0.0
0.4403	191.041055609	0.0
0.4506	192.600307271	1.0
0.4608	194.137708189	0.0
0.471	195.668458462	0.0
0.4813	197.207496612	1.0
0.4915	198.724967283	0.0
0.5018	200.250653932	0.0
0.512	201.754960204	0.0
0.5222	203.252758995	0.0
0.5325	204.758667256	0.0
0.5427	206.243472307	0.0
0.553	207.736316476	0.0
0.5632	209.20824051	0.0
0.5734	210.673797145	1.0
0.5837	212.147288683	0.0
0.5939	213.600131285	0.0
0.6042	215.060839953	0.0
0.6144	216.50107882	0.0
0.6246	217.935087356	0.0
0.6349	219.376859984	0.0
0.6451	220.798428174	0.0
0.6554	222.227693101	0.0
0.6656	223.636928868	0.0
0.6758	225.040068419	0.0
0.6861	226.450804931	0.0
0.6963	227.841771932	0.0
0.7066	229.240269988	0.0
0.7168	230.619170038	0.0
0.727	231.992105103	0.0
0.7373	233.372473592	0.0
0.7475	234.733498137	0.0
0.7578	236.10189162	1.0
0.768	237.451108971	0.0
0.7782	238.794489741	0.0
0.7885	240.145143922	1.0
0.7987	241.476870562	0.0
0.809	242.815807514	0.0
0.8192	244.135981127	1.0
0.8294	245.450443799	0.0
0.8397	246.772023311	0.0
0.8499	248.075082725	1.0
0.8602	249.385197238	0.0
0.8704	250.676952319	0.0
0.8806	251.963119394	0.0
0.8909	253.25625011	0.0
0.9011	254.531259397	1.0
0.9114	255.813171914	0.0
0.9216	257.077120209	0.0
0.9318	258.335600789	0.0
0.9421	259.600895107	0.0
0.9523	260.848458086	0.0
0.9626	262.102775692	3.0
0.9728	263.339515781	2.0
0.983	264.570905855	0.0
0.9933	265.808962993	0.0
1.0035	267.029670481	0.0
1.0138	268.256987195	0.0
1.024	269.467104772	1.0
1.0342	270.6719875	0.0
1.0445	271.883393774	0.0
1.0547	273.077823873	0.0
1.065	274.278720926	0.0
1.0752	275.462789076	0.0
1.0854	276.641735064	1.0
1.0957	277.827064171	1.0
1.1059	278.995782538	0.0
1.1162	280.170828648	2.0
1.1264	281.329408121	1.0
1.1366	282.482975694	1.0
1.1469	283.642788979	0.0
1.1571	284.786349094	3.0
1.1674	285.936100738	2.0
1.1776	287.069740212	2.0
1.1878	288.198475674	0.0
1.1981	289.333322401	0.0
1.2083	290.452265829	0.0
1.2186	291.577267506	0.0
1.2288	292.686503849	0.0
1.239	293.790941744	0.0
1.2493	294.901359352	1.0
1.2595	295.996216001	2.0
1.2698	297.097000487	2.0
1.28	298.182359009	0.0
1.2902	299.263022376	2.0
1.3005	300.349536735	0.0
1.3107	301.420825106	3.0
1.321	302.497913708	4.0
1.3312	303.559908412	3.0
1.3414	304.617309031	2.0
1.3517	305.68043469	4.0
1.3619	306.728662122	3.0
1.3722	307.782564927	1.0
1.3824	308.82169875	2.0
1.3926	309.856337383	3.0
1.4029	310.896577817	1.0
1.4131	311.922240727	1.0
1.4234	312.953456841	5.0
1.4336	313.970221896	4.0
1.4438	314.982588525	1.0
1.4541	316.000436368	3.0
1.4643	317.00402049	3.0
1.4746	318.013038275	3.0
1.4848	319.007916078	3.0
1.495	319.998490139	3.0
1.5053	320.994427423	3.0
1.5155	321.976408032	1.0
1.5258	322.963705336	6.0
1.536	323.937167042	7.0
1.5462	324.906417649	8.0
1.5565	325.880916029	2.0
1.5667	326.841758169	7.0
1.577	327.807802557	7.0
1.5872	328.760309176	8.0
1.5974	329.708695345	11.0
1.6077	330.662216321	5.0
1.6179	331.602375028	12.0
1.6282	332.547623996	7.0
1.6384	333.479626615	6.0
1.6486	334.407597482	11.0
1.6589	335.340592623	13.0
1.6691	336.260513134	11.0
1.6794	337.185414333	16.0
1.6896	338.097354327	9.0
1.6998	339.00534936	9.0
1.7101	339.918260511	11.0
1.7203	340.818378483	13.0
1.7306	341.723369925	21.0
1.7408	342.615679171	19.0
1.751	343.504128375	14.0
1.7613	344.397387873	15.0
1.7715	345.278129581	30.0
1.7818	346.163639852	25.0
1.792	347.036740927	27.0
1.8022	347.906065054	27.0
1.8125	348.780095926	23.0
1.8227	349.641878471	19.0
1.833	350.508326929	34.0
1.8432	351.362633317	25.0
1.8534	352.213244059	37.0
1.8637	353.068460228	35.0
1.8739	353.911691732	25.0
1.8842	354.759488708	44.0
1.8944	355.595404989	44.0
1.9046	356.427705179	45.0
1.9149	357.264511656	42.0
1.9251	358.089591455	54.0
1.9354	358.919138448	55.0
1.9456	359.737060494	53.0
1.9558	360.55144429	60.0
1.9661	361.370237371	60.0
1.9763	362.177556204	61.0
1.9866	362.989246071	72.0
1.9968	363.789561232	73.0
2.007	364.58641431	77.0
2.0173	365.387581755	87.0
2.0275	366.177521953	95.0
2.0378	366.971739091	94.0
2.048	367.75482638	94.0
2.0582	368.534526111	107.0
2.0685	369.318447338	102.0
2.0787	370.091382999	107.0
2.089	370.868503533	117.0
2.0992	371.634733803	136.0
2.1094	372.397649437	138.0
2.1197	373.164695693	131.0
2.1299	373.920992863	145.0
2.1402	374.68138482	153.0
2.1504	375.431120942	139.0
2.1606	376.177613779	156.0
2.1709	376.928148322	168.0
2.1811	377.668165166	159.0
2.1914	378.412188652	180.0
2.2016	379.145785685	183.0
2.2118	379.876209248	198.0
2.2221	380.610587514	192.0
2.2323	381.334674489	228.0
2.2426	382.062681858	227.0
2.2528	382.780487217	239.0
2.263	383.49518742	245.0
2.2733	384.213757194	249.0
2.2835	384.922257212	272.0
2.2938	385.634593233	279.0
2.304	386.336946855	284.0
2.3142	387.036262164	295.0
2.3245	387.739363747	329.0
2.3347	388.432612339	311.0
2.345	389.129614357	319.0
2.3552	389.816848862	349.0
2.3654	390.501110458	330.0
2.3757	391.189076823	331.0
2.3859	391.867402297	409.0
2.3962	392.549400399	411.0
2.4064	393.221841246	419.0
2.4166	393.891373181	403.0
2.4269	394.564530134	415.0
2.4371	395.228253729	432.0
2.4474	395.895570895	468.0
2.4576	396.553536539	435.0
2.4678	397.208655888	441.0
2.4781	397.867322222	451.0
2.4883	398.516758264	507.0
2.4986	399.16971052	464.0
2.5088	399.813512558	476.0
2.519	400.454529573	455.0
2.5293	401.099017218	470.0
2.5395	401.734473266	473.0
2.5498	402.373369837	491.0
2.56	403.003313161	515.0
2.5702	403.630531412	463.0
2.5805	404.261145585	503.0
2.5907	404.882922577	496.0
2.601	405.50806603	500.0
2.6112	406.124448967	461.0
2.6214	406.738165492	487.0
2.6317	407.355204837	470.0
2.6419	407.963597234	473.0
2.6522	408.575283624	471.0
2.6624	409.17839808	460.0
2.6726	409.778903523	444.0
2.6829	410.382660256	405.0
2.6931	410.977956179	441.0
2.7034	411.576475188	407.0
2.7136	412.166606785	385.0
2.7238	412.754185531	365.0
2.7341	413.34494558	345.0
2.7443	413.927426949	372.0
2.7546	414.513062022	389.0
2.7648	415.090490234	340.0
2.775	415.665420548	340.0
2.7853	416.243463684	324.0
2.7955	416.813406349	304.0
2.8058	417.38643483	325.0
2.816	417.951433115	314.0
2.8262	418.513987272	322.0
2.8365	419.079587243	295.0
2.8467	419.637261117	264.0
2.857	420.197954381	258.0
2.8672	420.750790309	269.0
2.8774	421.301234723	250.0
2.8877	421.854659386	276.0
2.8979	422.400328571	294.0
2.9082	422.94895215	293.0
2.9184	423.489887533	257.0
2.9286	424.028482882	288.0
2.9389	424.569994326	304.0
2.9491	425.10391724	250.0
2.9594	425.640730951	290.0
2.9696	426.170021963	287.0
2.9798	426.697023316	300.0
2.9901	427.226877989	298.0
3.0003	427.749307486	297.0
3.0106	428.274565551	300.0
3.0208	428.792462855	295.0
3.031	429.308119787	343.0
3.0413	429.826568618	354.0
3.0515	430.337752109	343.0
3.0618	430.85170328	326.0
3.072	431.358452141	358.0
3.0822	431.863008855	370.0
3.0925	432.37029737	366.0
3.1027	432.870476942	363.0
3.113	433.373364615	358.0
3.1232	433.869205017	356.0
3.1334	434.362900462	394.0
3.1437	434.859268901	408.0
3.1539	435.348681428	413.0
3.1642	435.84074376	407.0
3.1744	436.325910522	422.0
3.1846	436.808978502	429.0
3.1949	437.294661935	455.0
3.2051	437.773539192	456.0
3.2154	438.255009213	490.0
3.2256	438.729732101	477.0
3.2358	439.202401385	491.0
3.2461	439.677629822	467.0
3.2563	440.146198594	517.0
3.2666	440.617304318	553.0
3.2768	441.081808151	509.0
3.287	441.544302586	465.0
3.2973	442.009301085	516.0
3.3075	442.467783276	494.0
3.3178	442.928747809	574.0
3.328	443.383252565	484.0
3.3382	443.835791178	508.0
3.3485	444.290779952	553.0
3.3587	444.739392691	572.0
3.369	445.190434335	535.0
3.3792	445.635155258	552.0
3.3894	446.077952362	532.0
3.3997	446.523146883	545.0
3.4099	446.962102623	590.0
3.4202	447.403434982	555.0
3.4304	447.838582682	537.0
3.4406	448.271847977	569.0
3.4509	448.707459081	532.0
3.4611	449.136965701	554.0
3.4714	449.568797781	521.0
3.4816	449.994578335	506.0
3.4918	450.418517005	498.0
3.5021	450.844750987	530.0
3.5123	451.265011894	514.0
3.5226	451.687548201	502.0
3.5328	452.104163249	524.0
3.543	452.518976062	509.0
3.5533	452.936034779	531.0
3.5635	453.347248998	496.0
3.5738	453.760689636	479.0
3.584	454.168336479	482.0
3.5942	454.574219882	476.0
3.6045	454.982300843	491.0
3.6147	455.384663116	498.0
3.625	455.789203883	501.0
3.6352	456.188075573	457.0
3.6454	456.585221784	486.0
3.6557	456.984518247	461.0
3.6659	457.378219125	455.0
3.6762	457.774051601	451.0
3.6864	458.164337036	460.0
3.6966	458.552934134	467.0
3.7069	458.943635198	449.0
3.7171	459.328861129	441.0
3.7274	459.716172773	426.0
3.7376	460.098056783	420.0
3.7478	460.4782888	423.0
3.7581	460.860579492	419.0
3.7683	461.237512911	440.0
3.7786	461.616487145	388.0
3.7888	461.990150583	415.0
3.799	462.362197589	404.0
3.8093	462.736258953	428.0
3.8195	463.105078368	433.0
3.8298	463.475894666	392.0
3.84	463.84151449	405.0
3.8502	464.205552678	397.0
3.8605	464.571561863	406.0
3.8707	464.932441938	464.0
3.881	465.295275912	397.0
3.8912	465.653025271	417.0
3.9014	466.009227042	442.0
3.9117	466.367357382	398.0
3.9219	466.720469023	420.0
3.9322	467.075492501	414.0
3.9424	467.425540819	393.0
3.9526	467.774074863	408.0
3.9629	468.12449596	386.0
3.9731	468.470006392	394.0
3.9834	468.817387507	438.0
3.9936	469.159900559	402.0
4.0038	469.500931934	418.0
4.0141	469.84380974	400.0
4.0243	470.18188259	418.0
4.0346	470.521785855	441.0
4.0448	470.856925847	419.0
4.055	471.190616058	436.0
4.0653	471.526112953	385.0
4.0755	471.856908325	426.0
4.0858	472.18949471	398.0
4.096	472.517420358	438.0
4.1062	472.843927433	418.0
4.1165	473.172202301	432.0
4.1267	473.495876853	401.0
4.137	473.821303863	390.0
4.1472	474.142170466	427.0
4.1574	474.461649032	414.0
4.1677	474.782857337	405.0
4.1779	475.099564355	394.0
4.1882	475.417986106	410.0
4.1984	475.731945619	400.0
4.2086	476.044546974	428.0
4.2189	476.358840833	430.0
4.2291	476.668730301	416.0
4.2394	476.980297591	411.0
4.2496	477.287498699	416.0
4.2598	477.593370884	419.0
4.2701	477.900899141	446.0
4.2803	478.204117817	416.0
4.2906	478.508978197	437.0
4.3008	478.809566383	430.0
4.311	479.108854254	416.0
4.3213	479.409762547	441.0
4.3315	479.706454028	408.0
4.3418	480.004751874	390.0
4.352	480.29886949	386.0
4.3622	480.591714783	430.0
4.3725	480.886145615	387.0
4.3827	481.176450409	403.0
4.393	481.468326988	392.0
4.4032	481.756113323	331.0
4.4134	482.042654722	393.0
4.4237	482.330747531	416.0
4.4339	482.614803119	398.0
4.4442	482.900396658	357.0
4.4544	483.181988	394.0
4.4646	483.462361206	367.0
4.4749	483.744252425	381.0
4.4851	484.022193331	395.0
4.4954	484.30163908	360.0
4.5056	484.577168786	360.0
4.5158	484.851506577	382.0
4.5261	485.127329704	336.0
4.5363	485.399287554	346.0
4.5466	485.672717853	359.0
4.5568	485.942316407	378.0
4.567	486.210748705	375.0
4.5773	486.480634364	368.0
4.5875	486.746737951	372.0
4.5978	487.014282291	375.0
4.608	487.27807737	373.0
4.6182	487.540731297	365.0
4.6285	487.8048073	317.0
4.6387	488.065182645	354.0
4.649	488.32696773	354.0
4.6592	488.585084261	350.0
4.6694	488.842084205	353.0
4.6797	489.100475613	342.0
4.6899	489.355246025	324.0
4.7002	489.61139583	350.0
4.7104	489.863956051	390.0
4.7206	490.115423722	330.0
4.7309	490.368252903	347.0
4.7411	490.617539036	344.0
4.7514	490.868174867	332.0
4.7616	491.115298387	363.0
4.7718	491.361352874	336.0
4.7821	491.608739563	353.0
4.7923	491.852659473	331.0
4.8026	492.097900027	337.0
4.8128	492.339703877	324.0
4.823	492.580461706	350.0
4.8333	492.822523061	341.0
4.8435	493.061192262	351.0
4.8538	493.301153681	389.0
4.864	493.537752373	383.0
4.8742	493.773327563	319.0
4.8845	494.010178218	364.0
4.8947	494.24370974	358.0
4.905	494.478505663	365.0
4.9152	494.710011247	331.0
4.9254	494.94051536	332.0
4.9357	495.172267482	310.0
4.9459	495.400771921	377.0
4.9562	495.630513542	328.0
4.9664	495.857035653	363.0
4.9766	496.082577852	337.0
4.9869	496.309341195	349.0
4.9971	496.532926765	376.0
5.0074	496.757722885	354.0
5.0176	496.9793688	353.0
5.0278	497.200055896	330.0
5.0381	497.42193785	361.0
5.0483	497.640710436	353.0
5.0586	497.860667514	338.0
5.0688	498.077542199	360.0
5.079	498.293478705	325.0
5.0893	498.510584348	331.0
5.0995	498.724647557	350.0
5.1098	498.939869759	364.0
5.12	499.152075922	366.0
5.1302	499.363364102	344.0
5.1405	499.57579625	339.0
5.1507	499.785251457	344.0
5.161	499.995840709	366.0
5.1712	500.203478845	314.0
5.1814	500.410218759	324.0
5.1917	500.618078017	358.0
5.2019	500.823024416	336.0
5.2122	501.029080448	336.0
5.2224	501.232248891	346.0
5.2326	501.434538447	329.0
5.2429	501.637923251	339.0
5.2531	501.8384579	308.0
5.2634	502.040078296	313.0
5.2736	502.238873262	299.0
5.2838	502.43680826	325.0
5.2941	502.63581493	338.0
5.3043	502.832032798	308.0
5.3146	503.02931304	284.0
5.3248	503.223828674	314.0
5.335	503.417502853	289.0
5.3453	503.612225633	288.0
5.3555	503.804219645	294.0
5.3658	503.997253162	313.0
5.376	504.187581582	272.0
5.3862	504.37708666	265.0
5.3965	504.567617768	284.0
5.4067	504.755478848	254.0
5.417	504.944357055	276.0
5.4272	505.130588398	261.0
5.4374	505.316014122	243.0
5.4477	505.502443788	265.0
5.4579	505.686260902	270.0
5.4682	505.87107325	228.0
5.4784	506.053295709	250.0
5.4886	506.234729892	238.0
5.4989	506.417146406	245.0
5.5091	506.597006607	252.0
5.5194	506.777840618	230.0
5.5296	506.956140491	247.0
5.5398	507.133669056	223.0
5.5501	507.312158807	238.0
5.5603	507.488147272	222.0
5.5706	507.665088585	183.0
5.5808	507.83955031	220.0
5.591	508.013257332	170.0
5.6013	508.187904848	192.0
5.6115	508.360104923	199.0
5.6218	508.533237332	177.0
5.632	508.703943532	188.0
5.6422	508.873911274	186.0
5.6525	509.044799265	177.0
5.6627	509.213292499	159.0
5.673	509.382697998	168.0
5.6832	509.549729515	150.0
5.6934	509.71603847	148.0
5.7037	509.883247864	146.0
5.7139	510.048114052	165.0
5.7242	510.213872867	133.0
5.7344	510.377308803	117.0
5.7446	510.540037732	153.0
5.7549	510.703647717	134.0
5.7651	510.864964935	134.0
5.7754	511.027155567	137.0
5.7856	511.187073322	124.0
5.7958	511.346299289	102.0
5.8061	511.506387347	101.0
5.8163	511.664231993	109.0
5.8266	511.822931251	98.0
5.8368	511.979406559	97.0
5.847	512.13520497	119.0
5.8573	512.291846915	105.0
5.8675	512.44629374	89.0
5.8778	512.60157678	95.0
5.888	512.754683745	73.0
5.8982	512.907128384	71.0
5.9085	513.060398397	83.0
5.9187	513.211520544	85.0
5.929	513.363460906	57.0
5.9392	513.513272035	67.0
5.9494	513.662435096	68.0
5.9597	513.812405763	80.0
5.9699	513.960274801	64.0
5.9802	514.10894444	71.0
5.9904	514.25553068	63.0
6.0006	514.401482803	56.0
6.0109	514.548225149	55.0
6.0211	514.692911104	52.0
6.0314	514.838380427	44.0
6.0416	514.981811199	46.0
6.0518	515.124621504	54.0
6.0621	515.268205021	40.0
6.0723	515.409776414	48.0
6.0826	515.552114312	47.0
6.0928	515.692457542	50.0
6.103	515.832193661	39.0
6.1133	515.972686347	46.0
6.1235	516.111210224	39.0
6.1338	516.250484104	31.0
6.144	516.387806255	23.0
6.1542	516.524534364	34.0
6.1645	516.662002754	44.0
6.1747	516.797544716	33.0
6.185	516.933820537	31.0
6.1952	517.068186642	27.0
6.2054	517.201971493	33.0
6.2157	517.336480689	21.0
6.2259	517.469104926	29.0
6.2362	517.602447224	26.0
6.2464	517.733920916	20.0
6.2566	517.864825866	21.0
6.2669	517.996439568	17.0
6.2771	518.126208888	25.0
6.2874	518.256680812	14.0
6.2976	518.385324354	22.0
6.3078	518.513411397	24.0
6.3181	518.642191935	14.0
6.3283	518.769167794	19.0
6.3386	518.896831133	16.0
6.3488	519.022705447	21.0
6.359	519.148035242	11.0
6.3693	519.274043605	13.0
6.3795	519.398286135	17.0
6.3898	519.523201347	19.0
6.4	519.646366046	22.0
6.4102	519.768997946	10.0
6.4205	519.892293807	18.0
6.4307	520.013861848	14.0
6.441	520.13608809	15.0
6.4512	520.256601501	11.0
6.4614	520.376593583	11.0
6.4717	520.497235334	13.0
6.4819	520.616186457	9.0
6.4922	520.735781613	12.0
6.5024	520.853700809	8.0
6.5126	520.971109898	9.0
6.5229	521.089154671	7.0
6.5331	521.20554521	10.0
6.5434	521.322565917	6.0
6.5536	521.437946742	5.0
6.5638	521.552828441	4.0
6.5741	521.668332139	8.0
6.5843	521.782217213	8.0
6.5946	521.896718891	5.0
6.6048	522.009615987	5.0
6.615	522.122024701	4.0
6.6253	522.235042025	4.0
6.6355	522.346475568	6.0
6.6458	522.458512441	5.0
6.656	522.568979273	4.0
6.6662	522.678968237	7.0
6.6765	522.789552709	5.0
6.6867	522.898587494	10.0
6.697	523.008212621	7.0
6.7072	523.116301505	3.0
6.7174	523.223922806	6.0
6.7277	523.332126797	8.0
6.7379	523.43881446	7.0
6.7482	523.546079757	4.0
6.7584	523.65184188	8.0
6.7686	523.757146487	4.0
6.7789	523.86302124	4.0
6.7891	523.967412306	4.0
6.7994	524.072368572	5.0
6.8096	524.175854021	6.0
6.8198	524.278891803	4.0
6.8301	524.382487458	6.0
6.8403	524.484631364	5.0
6.8506	524.587328303	5.0
6.8608	524.688586088	3.0
6.871	524.789405842	8.0
6.8813	524.890771459	3.0
6.8915	524.990716579	4.0
6.9018	525.091202827	4.0
6.912	525.1902809	3.0
6.9222	525.288930371	3.0
6.9325	525.388113956	3.0
6.9427	525.485907621	4.0
6.953	525.584230766	5.0
6.9632	525.681176049	4.0
6.9734	525.777701956	4.0
6.9837	525.874750479	2.0
6.9939	525.970439002	1.0
7.0042	526.066645608	5.0
7.0144	526.161504012	3.0
7.0246	526.255952067	2.0
7.0349	526.350911489	3.0
7.0451	526.444540187	1.0
7.0554	526.538675814	4.0
7.0656	526.631492262	2.0
7.0758	526.723907195	4.0
7.0861	526.816822486	5.0
7.0963	526.908435698	2.0
7.1066	527.000544928	2.0
7.1168	527.091363376	5.0
7.127	527.181788952	5.0
7.1373	527.272704115	4.0
7.1475	527.362345228	1.0
7.1578	527.452471682	2.0
7.168	527.541335139	4.0
7.1782	527.629814181	4.0
7.1885	527.718772271	2.0
7.1987	527.806483738	3.0
7.209	527.894670097	6.0
7.2192	527.981620647	2.0
7.2294	528.068195058	1.0
7.2397	528.155238205	2.0
7.2499	528.241061563	2.0
7.2602	528.327349591	4.0
7.2704	528.412428412	3.0
7.2806	528.49713919	3.0
7.2909	528.582308615	2.0
7.3011	528.666284508	3.0
7.3114	528.750715069	2.0
7.3216	528.833962453	4.0
7.3318	528.916849717	5.0
7.3421	529.000185754	1.0
7.3523	529.082353952	3.0
7.3626	529.16496703	3.0
7.3728	529.246422401	3.0
7.383	529.327525403	6.0
7.3933	529.409067519	4.0
7.4035	529.489466935	1.0
7.4138	529.570301654	3.0
7.424	529.650003587	0.0
7.4342	529.729360737	2.0
7.4445	529.809147548	0.0
7.4547	529.887816257	4.0
7.465	529.966910899	3.0
7.4752	530.04489714	2.0
7.4854	530.122546019	1.0
7.4957	530.20061531	3.0
7.5059	530.277590568	3.0
7.5162	530.354982591	3.0
7.5264	530.431290071	1.0
7.5366	530.507267453	1.0
7.5469	530.583656196	3.0
7.5571	530.658974458	2.0
7.5674	530.734700511	2.0
7.5776	530.80936537	1.0
7.5878	530.883707235	2.0
7.5981	530.958451607	1.0
7.6083	531.03214854	1.0
7.6186	531.106244487	2.0
7.6288	531.179302083	2.0
7.639	531.252043639	1.0
7.6493	531.325179036	2.0
7.6595	531.397289543	3.0
7.6698	531.469790474	2.0
7.68	531.541275406	3.0
7.6902	531.6124511	0.0
7.7005	531.684012159	6.0
7.7107	531.754570389	2.0
7.721	531.825510639	2.0
7.7312	531.89545676	3.0
7.7414	531.965100301	3.0
7.7517	532.035120911	3.0
7.7619	532.104160278	5.0
7.7722	532.173573443	1.0
7.7824	532.242013879	1.0
7.7926	532.310158248	3.0
7.8029	532.378671569	3.0
7.8131	532.44622477	3.0
7.8234	532.514143722	1.0
7.8336	532.581110885	3.0
7.8438	532.647788354	2.0
