TL-DOS Lehrstuhlversuch
detector=R1407502
job_number=2015-10-21-014
irradiation_dose [mSv]=5.0

[BEGIN DATA]
time [sec] 	 temperature [K] 	 photoncount 
0.0	169.458928927	0.0
0.0102	170.817495699	0.0
0.0205	172.184520743	2.0
0.0307	173.533476914	0.0
0.041	174.890831522	2.0
0.0512	176.230245077	1.0
0.0614	177.564935779	4.0
0.0717	178.907936104	1.0
0.0819	180.233185106	1.0
0.0922	181.566684947	1.0
0.1024	182.88255904	1.0
0.1126	184.193793281	1.0
0.1229	185.513191108	1.0
0.1331	186.815149582	0.0
0.1434	188.125213891	3.0
0.1536	189.417962215	1.0
0.1638	190.70615223	2.0
0.1741	192.00236236	0.0
0.1843	193.281439623	1.0
0.1946	194.568480268	1.0
0.2048	195.838509245	1.0
0.215	197.104060023	1.0
0.2253	198.377489967	0.0
0.2355	199.634088146	0.0
0.2458	200.898509753	0.0
0.256	202.146218664	0.0
0.2662	203.389528078	1.0
0.2765	204.640578185	0.0
0.2867	205.875092337	0.0
0.297	207.117292424	0.0
0.3072	208.343073532	0.0
0.3174	209.564532461	0.0
0.3277	210.793596046	1.0
0.3379	212.006414284	0.0
0.3482	213.226783383	0.0
0.3584	214.431022056	0.0
0.3686	215.631014511	1.0
0.3789	216.838477974	1.0
0.3891	218.029981594	0.0
0.3994	219.228903372	0.0
0.4096	220.411978207	0.0
0.4198	221.59088145	0.0
0.4301	222.777124401	0.0
0.4403	223.947687995	0.0
0.4506	225.125539377	0.0
0.4608	226.287822317	0.0
0.471	227.446006979	0.0
0.4813	228.611402357	0.0
0.4915	229.761393935	1.0
0.5018	230.918545221	0.0
0.512	232.060401673	0.0
0.5222	233.198231871	0.0
0.5325	234.343146062	0.0
0.5427	235.472927165	0.0
0.553	236.609742149	0.0
0.5632	237.731531097	0.0
0.5734	238.84936455	0.0
0.5837	239.974157498	0.0
0.5939	241.084083315	0.0
0.6042	242.200919395	0.0
0.6144	243.302993515	0.0
0.6246	244.401181655	1.0
0.6349	245.506206981	0.0
0.6451	246.596626457	0.0
0.6554	247.693834753	0.0
0.6656	248.776540521	0.0
0.6758	249.855428604	0.0
0.6861	250.941033713	0.0
0.6963	252.012289661	1.0
0.7066	253.09021512	0.0
0.7168	254.153892925	0.0
0.727	255.213820138	0.0
0.7373	256.28034633	1.0
0.7475	257.33277554	0.0
0.7578	258.391757047	0.0
0.768	259.436741295	0.0
0.7782	260.478040866	1.0
0.7885	261.525823441	2.0
0.7987	262.559756782	1.0
0.809	263.600127267	0.0
0.8192	264.626746487	1.0
0.8294	265.649745786	0.0
0.8397	266.679114155	0.0
0.8499	267.694876681	1.0
0.8602	268.716963222	1.0
0.8704	269.72554017	1.0
0.8806	270.730560814	0.0
0.8909	271.741838595	1.0
0.9011	272.739749649	0.0
0.9114	273.743873577	0.0
0.9216	274.734725335	1.0
0.9318	275.72208329	1.0
0.9421	276.715588416	0.0
0.9523	277.695961728	0.0
0.9626	278.682438726	0.0
0.9728	279.655876805	0.0
0.983	280.625882482	1.0
0.9933	281.601927298	0.0
1.0035	282.565071084	0.0
1.0138	283.534211287	2.0
1.024	284.490541723	0.0
1.0342	285.443500079	2.0
1.0445	286.40239144	1.0
1.0547	287.348608499	1.0
1.065	288.300716592	0.0
1.0752	289.240240042	0.0
1.0854	290.176450676	0.0
1.0957	291.118490044	1.0
1.1059	292.048077855	1.0
1.1162	292.983453167	0.0
1.1264	293.906465005	2.0
1.1366	294.826222248	1.0
1.1469	295.751705788	0.0
1.1571	296.664956601	0.0
1.1674	297.583893202	3.0
1.1776	298.490683611	0.0
1.1878	299.394276622	1.0
1.1981	300.303495294	3.0
1.2083	301.200696222	1.0
1.2186	302.103483014	2.0
1.2288	302.994337076	3.0
1.239	303.882049933	0.0
1.2493	304.775289583	1.0
1.2595	305.656722693	1.0
1.2698	306.5436435	1.0
1.28	307.418841288	5.0
1.2902	308.290953076	0.0
1.3005	309.168494527	0.0
1.3107	310.034436932	1.0
1.321	310.905770589	1.0
1.3312	311.765587254	4.0
1.3414	312.622372153	3.0
1.3517	313.484491291	3.0
1.3619	314.33521523	0.0
1.3722	315.191235674	3.0
1.3824	316.03594153	4.0
1.3926	316.877668902	1.0
1.4029	317.724636767	5.0
1.4131	318.560409697	4.0
1.4234	319.401386049	3.0
1.4336	320.23124666	5.0
1.4438	321.058181133	4.0
1.4541	321.890264	7.0
1.4643	322.711348677	2.0
1.4746	323.537545328	5.0
1.4848	324.352821592	11.0
1.495	325.165223142	0.0
1.5053	325.982682607	8.0
1.5155	326.789337169	7.0
1.5258	327.601013865	7.0
1.536	328.401962093	2.0
1.5462	329.200086129	3.0
1.5565	330.00317919	3.0
1.5667	330.795657238	5.0
1.577	331.593069159	7.0
1.5872	332.379941159	10.0
1.5974	333.164038601	13.0
1.6077	333.953017739	7.0
1.6179	334.731568418	15.0
1.6282	335.514966259	9.0
1.6384	336.288009414	11.0
1.6486	337.058326771	13.0
1.6589	337.833440031	14.0
1.6691	338.598308107	19.0
1.6794	339.367938158	13.0
1.6896	340.127395501	20.0
1.6998	340.884174951	21.0
1.7101	341.645666018	19.0
1.7203	342.397091955	24.0
1.7306	343.153196178	25.0
1.7408	343.899306473	20.0
1.751	344.642785937	12.0
1.7613	345.390894214	18.0
1.7715	346.12911425	31.0
1.7818	346.871930354	17.0
1.792	347.604928167	23.0
1.8022	348.335341385	33.0
1.8125	349.070302068	24.0
1.8227	349.795548289	21.0
1.833	350.525309806	42.0
1.8432	351.245425582	29.0
1.8534	351.963002187	34.0
1.8637	352.685046336	30.0
1.8739	353.397546751	26.0
1.8842	354.114483107	33.0
1.8944	354.821943241	44.0
1.9046	355.526908829	46.0
1.9149	356.236263446	50.0
1.9251	356.936242055	45.0
1.9354	357.640578646	54.0
1.9456	358.335605554	52.0
1.9558	359.028181756	42.0
1.9661	359.725069853	73.0
1.9763	360.41274672	61.0
1.9866	361.10470498	62.0
1.9968	361.787517169	70.0
2.007	362.467921722	75.0
2.0173	363.152562392	72.0
2.0275	363.828153712	76.0
2.0378	364.507951183	91.0
2.048	365.178763321	103.0
2.0582	365.847210135	116.0
2.0685	366.519818618	112.0
2.0787	367.18353679	111.0
2.089	367.851387192	119.0
2.0992	368.510410172	130.0
2.1094	369.167109398	137.0
2.1197	369.827897154	130.0
2.1299	370.479950842	146.0
2.1402	371.136064136	147.0
2.1504	371.783505148	156.0
2.1606	372.428663243	173.0
2.1709	373.077838015	177.0
2.1811	373.718432215	150.0
2.1914	374.363014676	187.0
2.2016	374.999077265	201.0
2.2118	375.632897059	215.0
2.2221	376.270662938	222.0
2.2323	376.899999044	230.0
2.2426	377.533253321	208.0
2.2528	378.158137457	255.0
2.263	378.780818214	277.0
2.2733	379.407375706	279.0
2.2835	380.025651573	317.0
2.2938	380.647776751	332.0
2.304	381.261678889	330.0
2.3142	381.873416372	333.0
2.3245	382.488962458	347.0
2.3347	383.096372464	399.0
2.345	383.707564132	358.0
2.3552	384.310677275	433.0
2.3654	384.911663805	388.0
2.3757	385.516392004	420.0
2.3859	386.113127111	452.0
2.3962	386.713577418	414.0
2.4064	387.306091177	476.0
2.4166	387.896515697	460.0
2.4269	388.490616128	485.0
2.4371	389.076863941	521.0
2.4474	389.666761662	547.0
2.4576	390.248862314	560.0
2.4678	390.828910445	565.0
2.4781	391.412569885	586.0
2.4883	391.988514713	575.0
2.4986	392.568045303	614.0
2.5088	393.139915855	631.0
2.519	393.709769956	644.0
2.5293	394.2831719	615.0
2.5395	394.848994812	702.0
2.5498	395.418340468	663.0
2.56	395.980160707	668.0
2.5702	396.539999933	728.0
2.5805	397.103324651	752.0
2.5907	397.659203533	785.0
2.601	398.21854325	791.0
2.6112	398.770489805	793.0
2.6214	399.320490162	781.0
2.6317	399.873914755	779.0
2.6419	400.42002437	828.0
2.6522	400.969533997	780.0
2.6624	401.511780392	840.0
2.6726	402.052114793	828.0
2.6829	402.595813251	856.0
2.6931	403.132325287	899.0
2.7034	403.672177582	791.0
2.7136	404.204894292	854.0
2.7238	404.735732611	835.0
2.7341	405.269875865	826.0
2.7443	405.796958995	814.0
2.7546	406.32732368	821.0
2.7648	406.850678185	840.0
2.775	407.37218731	844.0
2.7853	407.896943288	788.0
2.7955	408.41476322	783.0
2.8058	408.935807035	808.0
2.816	409.44996387	794.0
2.8262	409.962307757	780.0
2.8365	410.477841435	737.0
2.8467	410.986560963	760.0
2.857	411.498447718	713.0
2.8672	412.003568527	710.0
2.8774	412.50690825	642.0
2.8877	413.013381705	613.0
2.8979	413.513160765	654.0
2.9082	414.016051389	601.0
2.9184	414.512294976	614.0
2.9286	415.006788778	574.0
2.9389	415.504361238	543.0
2.9491	415.995356954	543.0
2.9594	416.48940955	523.0
2.9696	416.976931926	553.0
2.9798	417.462735269	472.0
2.9901	417.951563165	511.0
3.0003	418.433929899	435.0
3.0106	418.91929979	522.0
3.0208	419.398254227	475.0
3.031	419.875519841	469.0
3.0413	420.355756853	445.0
3.0515	420.829646255	466.0
3.0618	421.306486035	466.0
3.072	421.777023109	424.0
3.0822	422.24590104	441.0
3.0925	422.717698149	428.0
3.1027	423.183259203	393.0
3.113	423.651718785	423.0
3.1232	424.113986426	442.0
3.1334	424.574624084	416.0
3.1437	425.038129616	462.0
3.1539	425.495508689	439.0
3.1642	425.955735348	447.0
3.1744	426.409878888	475.0
3.1846	426.86242109	503.0
3.1949	427.317780765	492.0
3.2051	427.76712165	465.0
3.2154	428.219260078	476.0
3.2256	428.665422293	546.0
3.2358	429.110011312	530.0
3.2461	429.55736829	554.0
3.2563	429.998812254	495.0
3.2666	430.443004595	518.0
3.2768	430.881325752	547.0
3.287	431.318101363	576.0
3.2973	431.757596285	633.0
3.3075	432.191282113	620.0
3.3178	432.627668016	627.0
3.328	433.058285918	635.0
3.3382	433.487385436	621.0
3.3485	433.919156475	668.0
3.3587	434.34522051	621.0
3.369	434.773937169	673.0
3.3792	435.196987197	655.0
3.3894	435.618545524	624.0
3.3997	436.042728423	703.0
3.4099	436.461304616	702.0
3.4202	436.882486813	692.0
3.4304	437.298101967	754.0
3.4406	437.712251637	679.0
3.4509	438.128979753	792.0
3.4611	438.540199698	697.0
3.4714	438.953979848	819.0
3.4816	439.362290792	802.0
3.4918	439.769162008	773.0
3.5021	440.178566354	802.0
3.5123	440.582559333	825.0
3.5226	440.989067523	822.0
3.5328	441.390202625	832.0
3.543	441.789923301	800.0
3.5533	442.192132589	822.0
3.5635	442.589025612	830.0
3.5738	442.988389642	888.0
3.584	443.382475014	837.0
3.5942	443.775170817	811.0
3.6045	444.170311496	823.0
3.6147	444.56022934	861.0
3.625	444.952574766	879.0
3.6352	445.339734302	846.0
3.6454	445.725528691	833.0
3.6557	446.113724988	917.0
3.6659	446.496790239	786.0
3.6762	446.882240408	844.0
3.6864	447.262595827	860.0
3.6966	447.641610089	890.0
3.7069	448.022984049	854.0
3.7171	448.399317137	840.0
3.7274	448.777993229	802.0
3.7376	449.151664109	807.0
3.7478	449.524017403	826.0
3.7581	449.898688923	833.0
3.7683	450.268408162	759.0
3.7786	450.640429229	803.0
3.7888	451.007533047	808.0
3.799	451.373342435	823.0
3.8093	451.741429308	793.0
3.8195	452.104650933	786.0
3.8298	452.470133932	737.0
3.84	452.830786101	770.0
3.8502	453.190166588	761.0
3.8605	453.551784535	743.0
3.8707	453.908622739	720.0
3.881	454.267682574	703.0
3.8912	454.621996477	746.0
3.9014	454.975061049	734.0
3.9117	455.330323758	753.0
3.9219	455.680890724	712.0
3.9322	456.033640279	709.0
3.9424	456.381727309	744.0
3.9526	456.728586963	680.0
3.9629	457.077606124	722.0
3.9731	457.422012067	678.0
3.9834	457.76856224	683.0
3.9936	458.110531831	680.0
4.0038	458.451295616	663.0
4.0141	458.794180955	679.0
4.0243	459.132534152	643.0
4.0346	459.472993895	706.0
4.0448	459.808953557	694.0
4.055	460.143728604	645.0
4.0653	460.480587921	641.0
4.0755	460.812994745	656.0
4.0858	461.147471094	627.0
4.096	461.477526448	655.0
4.1062	461.806418006	703.0
4.1165	462.137357204	617.0
4.1267	462.46392216	665.0
4.137	462.792520269	671.0
4.1472	463.116775081	593.0
4.1574	463.43988655	616.0
4.1677	463.765009672	661.0
4.1779	464.085835426	578.0
4.1882	464.408658603	656.0
4.1984	464.727214813	637.0
4.2086	465.044647774	628.0
4.2189	465.364057035	682.0
4.2291	465.679244452	644.0
4.2394	465.996394188	669.0
4.2496	466.309351946	648.0
4.2598	466.621206196	638.0
4.2701	466.935002013	642.0
4.2803	467.244650183	661.0
4.2906	467.556226186	686.0
4.3008	467.863683882	647.0
4.311	468.170057464	700.0
4.3213	468.47833849	693.0
4.3315	468.782544763	659.0
4.3418	469.088644987	648.0
4.352	469.390699282	673.0
4.3622	469.691688516	651.0
4.3725	469.994551671	627.0
4.3827	470.293411685	731.0
4.393	470.594132364	659.0
4.4032	470.89087822	675.0
4.4134	471.186577732	624.0
4.4237	471.484118233	675.0
4.4339	471.777725945	706.0
4.4442	472.073161623	688.0
4.4544	472.364692332	675.0
4.4646	472.655195086	648.0
4.4749	472.947506475	678.0
4.4851	473.235954191	666.0
4.4954	473.526197748	693.0
4.5056	473.812604964	643.0
4.5158	474.098002291	647.0
4.5261	474.385176467	680.0
4.5363	474.668554872	593.0
4.5466	474.953697557	666.0
4.5568	475.235071323	676.0
4.567	475.515452947	634.0
4.5773	475.797580194	641.0
4.5875	476.075978378	646.0
4.5978	476.356109836	655.0
4.608	476.632538611	589.0
4.6182	476.907992681	613.0
4.6285	477.185161695	627.0
4.6387	477.458667183	638.0
4.649	477.733875484	648.0
4.6592	478.005446174	633.0
4.6694	478.276059289	641.0
4.6797	478.548357209	658.0
4.6899	478.817055988	619.0
4.7002	479.087427652	581.0
4.7104	479.354225635	585.0
4.7206	479.620082873	624.0
4.7309	479.887595306	605.0
4.7411	480.15157185	639.0
4.7514	480.41719188	641.0
4.7616	480.679301034	586.0
4.7718	480.940485976	612.0
4.7821	481.203297023	555.0
4.7923	481.462634324	586.0
4.8026	481.723586227	593.0
4.8128	481.981088956	678.0
4.823	482.237683714	602.0
4.8333	482.495876001	650.0
4.8435	482.75065559	569.0
4.8538	483.007021406	603.0
4.864	483.259998665	615.0
4.8742	483.512083911	628.0
4.8845	483.765738609	605.0
4.8947	484.016040585	601.0
4.905	484.267900912	564.0
4.9152	484.516432233	601.0
4.9254	484.764087219	592.0
4.9357	485.013284074	590.0
4.9459	485.25918713	597.0
4.9562	485.506621148	555.0
4.9664	485.750784668	526.0
4.9766	485.994087252	564.0
4.9869	486.238904608	552.0
4.9971	486.480486052	569.0
5.0074	486.723571553	541.0
5.0176	486.963444031	516.0
5.0278	487.202470705	533.0
5.0381	487.442985531	528.0
5.0483	487.680321312	578.0
5.0586	487.919134718	538.0
5.0688	488.154791569	519.0
5.079	488.389617479	576.0
5.0893	488.625905387	563.0
5.0995	488.859070122	573.0
5.1098	489.093686513	518.0
5.12	489.325201823	562.0
5.1302	489.555900796	520.0
5.1405	489.788036073	527.0
5.1507	490.017103065	558.0
5.161	490.2475962	555.0
5.1712	490.475042755	520.0
5.1814	490.70168732	500.0
5.1917	490.929742947	519.0
5.2019	491.154784211	519.0
5.2122	491.381226555	540.0
5.2224	491.604675861	551.0
5.2326	491.827337271	547.0
5.2429	492.051384944	555.0
5.2531	492.272471231	553.0
5.2634	492.494933975	526.0
5.2736	492.714456281	552.0
5.2838	492.933204539	481.0
5.2941	493.153314696	490.0
5.3043	493.370515512	515.0
5.3146	493.589068594	536.0
5.3248	493.804732916	524.0
5.335	494.019636792	556.0
5.3453	494.235878634	528.0
5.3555	494.449262264	503.0
5.3658	494.663974395	515.0
5.376	494.875848534	554.0
5.3862	495.086975591	525.0
5.3965	495.299417101	499.0
5.4067	495.50905063	528.0
5.417	495.719989313	525.0
5.4272	495.928139879	543.0
5.4374	496.135556494	515.0
5.4477	496.34426446	516.0
5.4579	496.550213794	544.0
5.4682	496.757445344	554.0
5.4784	496.961937778	506.0
5.4886	497.165709159	555.0
5.4989	497.370749196	555.0
5.5091	497.573079084	551.0
5.5194	497.776668652	531.0
5.5296	497.977567243	540.0
5.5398	498.177757453	522.0
5.5501	498.379194024	546.0
5.5603	498.577968074	535.0
5.5706	498.777979667	549.0
5.5808	498.975347574	516.0
5.591	499.172019551	533.0
5.6013	499.369915983	524.0
5.6115	499.565196688	507.0
5.6218	499.761693186	509.0
5.632	499.955592461	511.0
5.6422	500.148808035	486.0
5.6525	500.343226545	487.0
5.6627	500.535075298	534.0
5.673	500.728118478	500.0
5.6832	500.918610078	504.0
5.6934	501.108429994	474.0
5.7037	501.299431705	524.0
5.7139	501.487908821	539.0
5.7242	501.677559372	477.0
5.7344	501.864703186	523.0
5.7446	502.051187121	502.0
5.7549	502.238832081	478.0
5.7651	502.423996814	519.0
5.7754	502.61031436	503.0
5.7856	502.794169225	520.0
5.7958	502.977375805	488.0
5.8061	503.161723008	445.0
5.8163	503.343633572	471.0
5.8266	503.526676689	512.0
5.8368	503.707300404	464.0
5.847	503.887287229	447.0
5.8573	504.06839463	486.0
5.8675	504.247108215	477.0
5.8778	504.42693445	454.0
5.888	504.604383802	412.0
5.8982	504.781207456	454.0
5.9085	504.959131994	463.0
5.9187	505.134704785	408.0
5.929	505.311370671	452.0
5.9392	505.485701448	460.0
5.9494	505.659417523	467.0
5.9597	505.834215134	434.0
5.9699	506.006702329	426.0
5.9802	506.180263409	422.0
5.9904	506.351530417	439.0
6.0006	506.522193527	409.0
6.0109	506.693919166	439.0
6.0211	506.863374992	411.0
6.0314	507.033885831	407.0
6.0416	507.202142915	373.0
6.0518	507.369806714	354.0
6.0621	507.538514368	385.0
6.0723	507.704992101	382.0
6.0826	507.872506304	347.0
6.0928	508.037806362	366.0
6.103	508.202523561	330.0
6.1133	508.36826627	380.0
6.1235	508.531818248	342.0
6.1338	508.696388481	315.0
6.144	508.85878348	352.0
6.1542	509.020605864	349.0
6.1645	509.183435736	321.0
6.1747	509.344113377	333.0
6.185	509.505791377	315.0
6.1952	509.665332373	334.0
6.2054	509.824310817	322.0
6.2157	509.984279042	319.0
6.2259	510.142132862	287.0
6.2362	510.30096946	279.0
6.2464	510.457706609	291.0
6.2566	510.613891094	271.0
6.2669	510.771047965	256.0
6.2771	510.92612759	286.0
6.2874	511.082172721	257.0
6.2976	511.236155301	257.0
6.3078	511.389594929	286.0
6.3181	511.543989853	243.0
6.3283	511.696344038	232.0
6.3386	511.849646761	222.0
6.3488	512.000923181	247.0
6.359	512.151666192	210.0
6.3693	512.30334771	240.0
6.3795	512.453024353	190.0
6.3898	512.603632864	200.0
6.4	512.752250684	197.0
6.4102	512.900344468	217.0
6.4205	513.049360266	193.0
6.4307	513.196406423	214.0
6.441	513.344368073	205.0
6.4512	513.490374015	161.0
6.4614	513.635865132	179.0
6.4717	513.782262058	172.0
6.4819	513.92672396	181.0
6.4922	514.072085264	159.0
6.5024	514.215525232	177.0
6.5126	514.358459421	183.0
6.5229	514.502283502	158.0
6.5331	514.644206564	156.0
6.5434	514.787013223	139.0
6.5536	514.927932311	132.0
6.5638	515.068354511	149.0
6.5741	515.209650961	145.0
6.5843	515.349079804	118.0
6.5946	515.489376713	148.0
6.6048	515.627819225	120.0
6.615	515.765773581	115.0
6.6253	515.904586824	127.0
6.6355	516.04156528	114.0
6.6458	516.179396548	106.0
6.656	516.315406009	104.0
6.6662	516.450935892	96.0
6.6765	516.587309567	103.0
6.6867	516.721880702	109.0
6.697	516.857289661	105.0
6.7072	516.990908829	94.0
6.7174	517.124056849	92.0
6.7277	517.258033832	92.0
6.7379	517.390239952	73.0
6.7482	517.523269172	67.0
6.7584	517.654540057	83.0
6.7686	517.785348072	61.0
6.7789	517.916970483	69.0
6.7891	518.046853153	76.0
6.7994	518.177544457	53.0
6.8096	518.306508327	61.0
6.8198	518.435017463	63.0
6.8301	518.564326682	56.0
6.8403	518.691926735	61.0
6.8506	518.82032121	54.0
6.8608	518.947018611	78.0
6.871	519.073269269	49.0
6.8813	519.200305949	61.0
6.8915	519.3256635	48.0
6.9018	519.451801513	45.0
6.912	519.576272276	66.0
6.9222	519.700304148	48.0
6.9325	519.825108227	54.0
6.9427	519.948262688	54.0
6.953	520.072183894	31.0
6.9632	520.194467151	35.0
6.9734	520.316319231	42.0
6.9837	520.438929946	42.0
6.9939	520.559920035	35.0
7.0042	520.681663393	30.0
7.0144	520.801797589	34.0
7.0246	520.921508185	26.0
7.0349	521.041964084	33.0
7.0451	521.160827838	31.0
7.0554	521.280431623	33.0
7.0656	521.398454526	26.0
7.0758	521.516061273	37.0
7.0861	521.634400225	24.0
7.0963	521.751175013	22.0
7.1066	521.868676827	21.0
7.1168	521.984625542	22.0
7.127	522.100165415	31.0
7.1373	522.216424625	27.0
7.1475	522.33114716	23.0
7.1578	522.446583944	20.0
7.168	522.560494923	29.0
7.1782	522.674004245	22.0
7.1885	522.788220263	18.0
7.1987	522.900926612	16.0
7.209	523.014334657	11.0
7.2192	523.126243714	15.0
7.2294	523.237758172	21.0
7.2397	523.349966905	10.0
7.2499	523.460692502	9.0
7.2602	523.572107462	17.0
7.2704	523.682049778	9.0
7.2806	523.79160443	20.0
7.2909	523.901841156	11.0
7.3011	524.010620811	20.0
7.3114	524.120077715	17.0
7.3216	524.228087854	18.0
7.3318	524.335717143	9.0
7.3421	524.444016519	13.0
7.3523	524.55088443	15.0
7.3626	524.658417688	13.0
7.3728	524.764529609	8.0
7.383	524.870267372	15.0
7.3933	524.976663445	15.0
7.4035	525.081653211	15.0
7.4138	525.187296631	14.0
7.424	525.291543692	11.0
7.4342	525.395423172	11.0
7.4445	525.499949392	10.0
7.4547	525.603094021	8.0
7.465	525.706880815	9.0
7.4752	525.809295791	10.0
7.4854	525.911349645	17.0
7.4957	526.014038874	13.0
7.5059	526.115370792	12.0
7.5162	526.21733359	9.0
7.5264	526.317948679	13.0
7.5366	526.418208992	12.0
7.5469	526.519093514	14.0
7.5571	526.618644579	8.0
7.5674	526.718815437	7.0
7.5776	526.81766227	5.0
7.5878	526.916160563	6.0
7.5981	527.015272095	6.0
7.6083	527.113073604	10.0
7.6186	527.211484013	9.0
7.6288	527.308593667	7.0
7.639	527.405360906	4.0
7.6493	527.502730607	9.0
7.6595	527.598813308	5.0
7.6698	527.695494208	7.0
7.68	527.790897213	10.0
7.6902	527.885963821	5.0
7.7005	527.981622302	2.0
7.7107	528.076016402	10.0
7.721	528.170998188	5.0
7.7312	528.264724537	10.0
7.7414	528.358120401	8.0
7.7517	528.452097737	6.0
7.7619	528.544832912	7.0
