TL-DOS Lehrstuhlversuch
detector=R1407204
job_number=2015-10-21-013
irradiation_dose [mSv]=3.0

[BEGIN DATA]
time [sec] 	 temperature [K] 	 photoncount 
0.0	92.2706878265	0.0
0.0102	94.443798554	0.0
0.0205	96.627609794	1.0
0.0307	98.779768111	1.0
0.041	100.94252377	1.0
0.0512	103.073931692	0.0
0.0614	105.195089688	5.0
0.0717	107.326692378	2.0
0.0819	109.427398874	1.0
0.0922	111.53844936	2.0
0.1024	113.618901543	2.0
0.1126	115.689348844	2.0
0.1229	117.769991138	1.0
0.1331	119.820475875	0.0
0.1434	121.881057309	3.0
0.1536	123.911771955	2.0
0.1638	125.932720907	3.0
0.1741	127.963621119	3.0
0.1843	129.965084754	0.0
0.1946	131.976403702	2.0
0.2048	133.95856989	3.0
0.215	135.931203854	1.0
0.2253	137.913551172	2.0
0.2355	139.867165655	0.0
0.2458	141.83039984	0.0
0.256	143.765178223	0.0
0.2662	145.690652269	0.0
0.2765	147.625607451	0.0
0.2867	149.532516717	0.0
0.297	151.448815705	0.0
0.3072	153.337339186	0.0
0.3174	155.216780769	0.0
0.3277	157.105476823	0.0
0.3379	158.966797456	0.0
0.3482	160.837283331	0.0
0.3584	162.68065773	0.0
0.3686	164.515167353	0.0
0.3789	166.358710199	0.0
0.3891	168.175532091	0.0
0.3994	170.001300111	1.0
0.4096	171.80060481	0.0
0.4198	173.591256665	0.0
0.4301	175.390725785	0.0
0.4403	177.16411277	0.0
0.4506	178.946232008	1.0
0.4608	180.702520586	0.0
0.471	182.450363184	0.0
0.4813	184.206812251	0.0
0.4915	185.937802732	0.0
0.5018	187.677316702	0.0
0.512	189.391617549	0.0
0.5222	191.097674333	0.0
0.5325	192.812131832	0.0
0.5427	194.501739385	0.0
0.553	196.199666655	0.0
0.5632	197.872983575	0.0
0.5734	199.538253523	0.0
0.5837	201.211723349	0.0
0.5939	202.860937319	0.0
0.6042	204.518272106	0.0
0.6144	206.151584904	1.0
0.6246	207.777043111	0.0
0.6349	209.41050516	0.0
0.6451	211.02029124	0.0
0.6554	212.638003991	0.0
0.6656	214.232269049	1.0
0.6758	215.818867297	1.0
0.6861	217.413278038	0.0
0.6963	218.984578833	0.0
0.7066	220.563616796	2.0
0.7168	222.119767632	0.0
0.727	223.668434948	0.0
0.7373	225.224727984	0.0
0.7475	226.758463565	0.0
0.7578	228.299751341	0.0
0.768	229.818699154	0.0
0.7782	231.330342357	0.0
0.7885	232.849428971	0.0
0.7987	234.346497413	0.0
0.809	235.850937499	0.0
0.8192	237.333571705	0.0
0.8294	238.809075932	0.0
0.8397	240.291845621	1.0
0.8499	241.753123528	0.0
0.8602	243.221596844	0.0
0.8704	244.668785596	1.0
0.8806	246.109014826	1.0
0.8909	247.556335821	0.0
0.9011	248.98267884	0.0
0.9114	250.416045247	1.0
0.9216	251.828635941	0.0
0.9318	253.234433496	0.0
0.9421	254.647153272	0.0
0.9523	256.039396594	0.0
0.9626	257.438495396	1.0
0.9728	258.817315172	0.0
0.983	260.189504211	0.0
0.9933	261.568449983	0.0
1.0035	262.927408832	1.0
1.0138	264.293059267	0.0
1.024	265.638915488	0.0
1.0342	266.978299495	3.0
1.0445	268.324278699	2.0
1.0547	269.650748811	0.0
1.065	270.983750532	1.0
1.0752	272.29743126	1.0
1.0854	273.604794506	0.0
1.0957	274.918595278	1.0
1.1059	276.213353362	0.0
1.1162	277.514486904	0.0
1.1264	278.796761362	2.0
1.1366	280.07286937	1.0
1.1469	281.355261002	1.0
1.1571	282.619065201	0.0
1.1674	283.88909244	0.0
1.1776	285.14071146	1.0
1.1878	286.386311451	1.0
1.1981	287.638044844	0.0
1.2083	288.871635175	0.0
1.2186	290.11129977	1.0
1.2288	291.332996234	2.0
1.239	292.548817567	1.0
1.2493	293.770625669	3.0
1.2595	294.974724458	2.0
1.2698	296.184752292	1.0
1.28	297.377241561	2.0
1.2902	298.563996156	1.0
1.3005	299.756594394	3.0
1.3107	300.931906697	2.0
1.321	302.113006299	2.0
1.3312	303.276986631	2.0
1.3414	304.435369389	1.0
1.3517	305.599456086	2.0
1.3619	306.746670103	2.0
1.3722	307.899533063	1.0
1.3824	309.035686024	3.0
1.3926	310.166375233	4.0
1.4029	311.302632015	3.0
1.4131	312.422419495	4.0
1.4234	313.547720868	3.0
1.4336	314.656711729	4.0
1.4438	315.760369461	4.0
1.4541	316.869461661	4.0
1.4643	317.962478292	3.0
1.4746	319.060876995	5.0
1.4848	320.143355123	6.0
1.495	321.220627621	3.0
1.5053	322.303204665	8.0
1.5155	323.37009046	13.0
1.5258	324.442229657	9.0
1.536	325.498828894	12.0
1.5462	326.550346952	11.0
1.5565	327.607042741	9.0
1.5667	328.648422411	12.0
1.577	329.694929891	8.0
1.5872	330.726268925	11.0
1.5974	331.752648257	15.0
1.6077	332.784081535	12.0
1.6179	333.800564858	8.0
1.6282	334.8220534	17.0
1.6384	335.828736129	25.0
1.6486	336.830577728	9.0
1.6589	337.837352448	19.0
1.6691	338.829534623	22.0
1.6794	339.826602356	22.0
1.6896	340.809218241	15.0
1.6998	341.787108733	17.0
1.7101	342.769814409	17.0
1.7203	343.738276406	31.0
1.7306	344.71150716	28.0
1.7408	345.670631569	28.0
1.751	346.625143554	34.0
1.7613	347.584355607	30.0
1.7715	348.529664505	25.0
1.7818	349.479628155	31.0
1.792	350.415822699	36.0
1.8022	351.34751509	32.0
1.8125	352.283795183	36.0
1.8227	353.206504506	44.0
1.833	354.133757298	45.0
1.8432	355.047570165	35.0
1.8534	355.956988511	32.0
1.8637	356.870884882	62.0
1.8739	357.771534919	70.0
1.8842	358.676619804	57.0
1.8944	359.568586074	75.0
1.9046	360.456262883	76.0
1.9149	361.348310659	89.0
1.9251	362.227428784	64.0
1.9354	363.110875733	89.0
1.9456	363.981517693	82.0
1.9558	364.847972742	99.0
1.9661	365.718694261	108.0
1.9763	366.576795238	102.0
1.9866	367.43912155	97.0
1.9968	368.288949003	92.0
2.007	369.134689641	130.0
2.0173	369.984594751	142.0
2.0275	370.82218104	116.0
2.0378	371.663891648	159.0
2.048	372.493402208	134.0
2.0582	373.318923657	162.0
2.0685	374.148510018	155.0
2.0787	374.966072064	172.0
2.089	375.787659829	186.0
2.0992	376.597339214	185.0
2.1094	377.403124856	192.0
2.1197	378.212878229	228.0
2.1299	379.010894753	217.0
2.1402	379.812840754	229.0
2.1504	380.603163069	239.0
2.1606	381.389684729	242.0
2.1709	382.180079263	235.0
2.1811	382.959017543	276.0
2.1914	383.741791356	283.0
2.2016	384.513219373	303.0
2.2118	385.280937596	320.0
2.2221	386.052436105	273.0
2.2323	386.812752245	312.0
2.2426	387.576812222	339.0
2.2528	388.329797647	351.0
2.263	389.07916197	349.0
2.2733	389.832216202	391.0
2.2835	390.574355404	392.0
2.2938	391.320148938	405.0
2.304	392.05513268	431.0
2.3142	392.78658189	413.0
2.3245	393.521632794	451.0
2.3347	394.246029614	425.0
2.345	394.973993403	463.0
2.3552	395.691405829	478.0
2.3654	396.405368225	426.0
2.3757	397.122846208	503.0
2.3859	397.829924816	484.0
2.3962	398.540485115	543.0
2.4064	399.240746306	533.0
2.4166	399.937639945	509.0
2.4269	400.637965125	539.0
2.4371	401.328139547	535.0
2.4474	402.021712425	534.0
2.4576	402.705232416	570.0
2.4678	403.385465362	482.0
2.4781	404.069047813	508.0
2.4883	404.74272218	556.0
2.4986	405.419713755	517.0
2.5088	406.086892778	537.0
2.519	406.750863342	468.0
2.5293	407.418103332	492.0
2.5395	408.075672112	491.0
2.5498	408.736478796	502.0
2.56	409.387707516	461.0
2.5702	410.035804482	465.0
2.5805	410.687092712	443.0
2.5907	411.328940943	457.0
2.601	411.973949669	431.0
2.6112	412.609609412	459.0
2.6214	413.242212272	401.0
2.6317	413.877930102	410.0
2.6419	414.504433616	368.0
2.6522	415.134022066	380.0
2.6624	415.754485042	379.0
2.6726	416.371964214	370.0
2.6829	416.992483887	338.0
2.6931	417.604009531	314.0
2.7034	418.21854636	339.0
2.7136	418.824175878	322.0
2.7238	419.426892926	321.0
2.7341	420.032577786	249.0
2.7443	420.629483637	317.0
2.7546	421.229328685	279.0
2.7648	421.820479369	279.0
2.775	422.408787213	271.0
2.7853	422.999991916	259.0
2.7955	423.582627492	306.0
2.8058	424.168131996	292.0
2.816	424.745149993	268.0
2.8262	425.319393115	272.0
2.8365	425.896463839	271.0
2.8467	426.4651703	305.0
2.857	427.036677101	347.0
2.8672	427.599900283	311.0
2.8774	428.160414928	330.0
2.8877	428.723689577	292.0
2.8979	429.278799926	342.0
2.9082	429.836643668	360.0
2.9184	430.386401828	291.0
2.9286	430.933516205	344.0
2.9389	431.483324602	331.0
2.9491	432.025163884	356.0
2.9594	432.569671211	351.0
2.9696	433.106286259	378.0
2.9798	433.640320728	422.0
2.9901	434.176984812	399.0
3.0003	434.705870298	399.0
3.0106	435.237360045	408.0
3.0208	435.761146194	418.0
3.031	436.282413459	433.0
3.0413	436.806247471	437.0
3.0515	437.32248885	489.0
3.0618	437.841272229	427.0
3.072	438.352536181	505.0
3.0822	438.861341467	474.0
3.0925	439.372652138	492.0
3.1027	439.876551693	478.0
3.113	440.382932476	454.0
3.1232	440.8819736	534.0
3.1334	441.378614837	480.0
3.1437	441.877701563	527.0
3.1539	442.369554351	569.0
3.1642	442.863829048	536.0
3.1744	443.350939556	551.0
3.1846	443.835707551	545.0
3.1949	444.322862571	565.0
3.2051	444.802956595	536.0
3.2154	445.285414627	582.0
3.2256	445.760879745	566.0
3.2358	446.234058353	617.0
3.2461	446.709566919	541.0
3.2563	447.178183296	565.0
3.2666	447.649107166	612.0
3.2768	448.113205301	596.0
3.287	448.575071591	574.0
3.2973	449.039212135	578.0
3.3075	449.496625263	563.0
3.3178	449.956290718	591.0
3.328	450.409293622	573.0
3.3382	450.860118037	579.0
3.3485	451.313162336	535.0
3.3587	451.759640052	556.0
3.369	452.208316249	582.0
3.3792	452.650489176	528.0
3.3894	453.090535696	587.0
3.3997	453.532749028	505.0
3.4099	453.968552766	534.0
3.4202	454.406502424	523.0
3.4304	454.838104288	576.0
3.4406	455.26763058	527.0
3.4509	455.699271883	534.0
3.4611	456.124656826	524.0
3.4714	456.552136387	514.0
3.4816	456.97341991	506.0
3.4918	457.392677484	512.0
3.5021	457.813999503	451.0
3.5123	458.229214734	444.0
3.5226	458.646474507	463.0
3.5328	459.057686372	504.0
3.543	459.46692072	505.0
3.5533	459.878170161	468.0
3.5635	460.283458808	510.0
3.5738	460.690743118	469.0
3.584	461.092124108	476.0
3.5942	461.491574858	508.0
3.6045	461.892992525	448.0
3.6147	462.288591904	464.0
3.625	462.686139236	451.0
3.6352	463.077924378	475.0
3.6454	463.467825427	486.0
3.6557	463.85964637	477.0
3.6659	464.245788123	456.0
3.6762	464.633831259	489.0
3.6864	465.016249962	431.0
3.6966	465.396829616	487.0
3.7069	465.779283264	492.0
3.7171	466.156193496	465.0
3.7274	466.534959653	470.0
3.7376	466.908235841	444.0
3.7478	467.279716947	479.0
3.7581	467.653027245	398.0
3.7683	468.020926654	470.0
3.7786	468.390637618	442.0
3.7888	468.754989863	440.0
3.799	469.11758994	488.0
3.8093	469.481975479	445.0
3.8195	469.841079487	429.0
3.8298	470.201951742	440.0
3.84	470.557593388	471.0
3.8502	470.911524756	467.0
3.8605	471.267198901	447.0
3.8707	471.617717781	475.0
3.881	471.969962634	473.0
3.8912	472.317101927	448.0
3.9014	472.662571829	426.0
3.9117	473.009742844	462.0
3.9219	473.351881841	482.0
3.9322	473.695705548	486.0
3.9424	474.034545754	481.0
3.9526	474.37175648	480.0
3.9629	474.710627649	512.0
3.9731	475.044587101	439.0
3.9834	475.380190988	452.0
3.9936	475.710930514	440.0
4.0038	476.040079516	468.0
4.0141	476.370849265	458.0
4.0243	476.696824722	461.0
4.0346	477.0244053	426.0
4.0448	477.34723781	465.0
4.055	477.66851782	446.0
4.0653	477.99137983	452.0
4.0755	478.309562166	481.0
4.0858	478.629311248	398.0
4.096	478.944425776	456.0
4.1062	479.258024919	460.0
4.1165	479.573168242	478.0
4.1267	479.883743767	417.0
4.137	480.195848582	408.0
4.1472	480.503429641	417.0
4.1574	480.809531545	415.0
4.1677	481.117140711	417.0
4.1779	481.420291282	453.0
4.1882	481.724934582	433.0
4.1984	482.025162276	403.0
4.2086	482.323946177	402.0
4.2189	482.624201306	406.0
4.2291	482.920104432	451.0
4.2394	483.217464601	384.0
4.2496	483.510514728	422.0
4.2598	483.802155578	396.0
4.2701	484.095232483	408.0
4.2803	484.38406143	423.0
4.2906	484.674312585	394.0
4.3008	484.960356739	419.0
4.311	485.245025308	374.0
4.3213	485.531095601	421.0
4.3315	485.81301949	404.0
4.3418	486.096331588	399.0
4.352	486.375537262	366.0
4.3622	486.653400237	394.0
4.3725	486.932631424	393.0
4.3827	487.207815336	420.0
4.393	487.484354269	436.0
4.4032	487.75688495	395.0
4.4134	488.028105033	371.0
4.4237	488.300660617	399.0
4.4339	488.569265686	373.0
4.4442	488.83919338	394.0
4.4544	489.105208649	378.0
4.4646	489.369944651	398.0
4.4749	489.635984228	382.0
4.4851	489.898167733	381.0
4.4954	490.161642245	367.0
4.5056	490.421297865	401.0
4.5158	490.679704802	354.0
4.5261	490.939384149	407.0
4.5363	491.195299613	380.0
4.5466	491.452475218	356.0
4.5568	491.705923231	369.0
4.567	491.958152413	389.0
4.5773	492.211623585	371.0
4.5875	492.461420857	358.0
4.5978	492.712448145	382.0
4.608	492.959836955	374.0
4.6182	493.206036074	383.0
4.6285	493.453447491	372.0
4.6387	493.69727284	396.0
4.649	493.942298798	400.0
4.6592	494.183773264	425.0
4.6694	494.424086481	374.0
4.6797	494.665583013	400.0
4.6899	494.90357921	394.0
4.7002	495.142747312	382.0
4.7104	495.378448829	359.0
4.7206	495.613016859	436.0
4.7309	495.848739914	364.0
4.7411	496.081046317	407.0
4.7514	496.314496608	361.0
4.7616	496.54456319	406.0
4.7718	496.773523383	397.0
4.7821	497.003610988	378.0
4.7923	497.230363623	353.0
4.8026	497.4582328	368.0
4.8128	497.682799162	374.0
4.823	497.906285585	416.0
4.8333	498.130872467	398.0
4.8435	498.352204109	366.0
4.8538	498.574625599	395.0
4.864	498.793823235	359.0
4.8742	499.011966751	378.0
4.8845	499.231184416	423.0
4.8947	499.447224665	332.0
4.905	499.664328707	379.0
4.9152	499.878285967	374.0
4.9254	500.091214308	307.0
4.9357	500.305191119	396.0
4.9459	500.516066476	334.0
4.9562	500.727980194	350.0
4.9664	500.936822361	365.0
4.9766	501.144660207	355.0
4.9869	501.353521458	353.0
4.9971	501.559355401	394.0
5.0074	501.766202881	364.0
5.0176	501.970052241	334.0
5.0278	502.172921291	329.0
5.0381	502.37678928	337.0
5.0483	502.577702334	352.0
5.0586	502.779604695	354.0
5.0688	502.978580612	314.0
5.079	503.176599656	286.0
5.0893	503.375593755	323.0
5.0995	503.571703565	332.0
5.1098	503.76877903	294.0
5.12	503.962998014	323.0
5.1302	504.156283001	293.0
5.1405	504.350519733	253.0
5.1507	504.541941129	283.0
5.161	504.734305095	308.0
5.1712	504.923880871	309.0
5.1814	505.112544978	295.0
5.1917	505.302138076	270.0
5.2019	505.488983147	256.0
5.2122	505.676748252	239.0
5.2224	505.861791824	294.0
5.2326	506.045945523	268.0
5.2429	506.231006004	240.0
5.2531	506.413384154	221.0
5.2634	506.596660344	248.0
5.2736	506.777280065	242.0
5.2838	506.957031187	234.0
5.2941	507.137667412	243.0
5.3043	507.315685434	238.0
5.3146	507.494580025	208.0
5.3248	507.670881655	205.0
5.335	507.846335453	227.0
5.3453	508.022653194	196.0
5.3555	508.196415324	184.0
5.3658	508.371033068	180.0
5.376	508.543119841	189.0
5.3862	508.71437905	155.0
5.3965	508.886481549	178.0
5.4067	509.056089534	146.0
5.417	509.226532677	169.0
5.4272	509.394505359	159.0
5.4374	509.56167026	148.0
5.4477	509.729658291	162.0
5.4579	509.895211444	118.0
5.4682	510.06157979	125.0
5.4784	510.225536734	144.0
5.4886	510.388705211	132.0
5.4989	510.552677138	123.0
5.5091	510.714272399	125.0
5.5194	510.876663364	122.0
5.5296	511.036700577	118.0
5.5398	511.195968172	102.0
5.5501	511.356020009	103.0
5.5603	511.513751999	104.0
5.5706	511.672260669	107.0
5.5808	511.82847186	110.0
5.591	511.983931832	101.0
5.6013	512.140157297	94.0
5.6115	512.294118375	89.0
5.6218	512.448837567	65.0
5.632	512.601314204	77.0
5.6422	512.753057582	81.0
5.6525	512.905548152	77.0
5.6627	513.055828471	80.0
5.673	513.206848778	68.0
5.6832	513.355680144	63.0
5.6934	513.503795781	54.0
5.7037	513.652640747	56.0
5.7139	513.799328302	67.0
5.7242	513.946738154	57.0
5.7344	514.092011397	40.0
5.7446	514.236586021	44.0
5.7549	514.381872539	45.0
5.7651	514.525053223	47.0
5.7754	514.668938936	23.0
5.7856	514.81073912	34.0
5.7958	514.951857387	43.0
5.8061	515.093670528	35.0
5.8163	515.23342818	29.0
5.8266	515.373874007	30.0
5.8368	515.512284162	46.0
5.847	515.650028703	28.0
5.8573	515.788451506	26.0
5.8675	515.924867961	28.0
5.8778	516.061956138	33.0
5.888	516.19705731	30.0
5.8982	516.331508782	24.0
5.9085	516.4666223	24.0
5.9187	516.599777435	31.0
5.929	516.733588234	19.0
5.9392	516.865459532	22.0
5.9494	516.996696662	21.0
5.9597	517.12858001	18.0
5.9699	517.258551795	15.0
5.9802	517.389163568	7.0
5.9904	517.517882208	22.0
6.0006	517.645981842	17.0
6.0109	517.774712244	23.0
6.0211	517.901576783	14.0
6.0314	518.02906601	20.0
6.0416	518.154707364	19.0
6.0518	518.279744509	19.0
6.0621	518.405397343	15.0
6.0723	518.529228922	10.0
6.0826	518.653670253	13.0
6.0928	518.776307889	8.0
6.103	518.898355761	11.0
6.1133	519.021004603	9.0
6.1235	519.14187573	9.0
6.1338	519.263342033	9.0
6.144	519.383047761	10.0
6.1542	519.502177825	7.0
6.1645	519.621894491	9.0
6.1747	519.739875942	10.0
6.185	519.858438341	10.0
6.1952	519.975282254	10.0
6.2054	520.091564266	7.0
6.2157	520.208418856	9.0
6.2259	520.323579716	9.0
6.2362	520.439307633	7.0
6.2464	520.55335815	12.0
6.2566	520.666860198	8.0
6.2669	520.780921137	9.0
6.2771	520.893328836	11.0
6.2874	521.006290037	6.0
6.2976	521.117613939	4.0
6.3078	521.228402485	4.0
6.3181	521.339736559	0.0
6.3283	521.449456919	7.0
6.3386	521.559717547	7.0
6.3488	521.66838002	4.0
6.359	521.776519935	3.0
6.3693	521.885192337	3.0
6.3795	521.992289603	11.0
6.3898	522.099914222	6.0
6.4	522.205978891	8.0
6.4102	522.311533497	3.0
6.4205	522.417607859	4.0
6.4307	522.522144742	11.0
6.441	522.627196371	3.0
6.4512	522.730725344	3.0
6.4614	522.833756447	4.0
6.4717	522.937294881	4.0
6.4819	523.039332593	6.0
6.4922	523.141872743	3.0
6.5024	523.242926641	5.0
6.5126	523.343494572	1.0
6.5229	523.444557704	1.0
6.5331	523.544155992	5.0
6.5434	523.644244707	4.0
6.5536	523.742882701	8.0
6.5638	523.841046346	7.0
6.5741	523.939693354	7.0
6.5843	524.036910537	5.0
6.5946	524.134606424	2.0
6.6048	524.230886272	4.0
6.615	524.32670311	2.0
6.6253	524.422991756	1.0
6.6355	524.517884761	6.0
6.6458	524.613245024	4.0
6.656	524.707223101	7.0
6.6662	524.800749239	8.0
6.6765	524.894735905	1.0
6.6867	524.987360295	8.0
6.697	525.080440772	6.0
6.7072	525.172172109	2.0
6.7174	525.26346231	4.0
6.7277	525.355202028	2.0
6.7379	525.44561204	7.0
6.7482	525.536467235	3.0
6.7584	525.626005543	6.0
6.7686	525.715113262	5.0
6.7789	525.804659752	4.0
6.7891	525.892908323	4.0
6.7994	525.981591436	4.0
6.8096	526.068989144	2.0
6.8198	526.155966558	5.0
6.8301	526.243372253	5.0
6.8403	526.329511059	5.0
6.8506	526.416074017	2.0
6.8608	526.501382302	4.0
6.871	526.586280339	2.0
6.8813	526.671596419	2.0
6.8915	526.755675898	2.0
6.9018	526.840169389	6.0
6.912	526.923438201	4.0
6.9222	527.006306575	1.0
6.9325	527.089582996	0.0
6.9427	527.17165238	2.0
6.953	527.254125878	4.0
6.9632	527.335403977	1.0
6.9734	527.416291209	3.0
6.9837	527.497576735	3.0
6.9939	527.57768408	6.0
7.0042	527.658185877	2.0
7.0144	527.737520853	2.0
7.0246	527.816474308	2.0
7.0349	527.895816534	3.0
7.0451	527.974008746	5.0
7.0554	528.052585981	5.0
7.0656	528.13002429	8.0
7.0758	528.207090198	2.0
7.0861	528.284535583	3.0
7.0963	528.360858448	2.0
7.1066	528.43755713	0.0
7.1168	528.513144115	2.0
7.127	528.588367603	3.0
7.1373	528.663961495	4.0
7.1475	528.738459702	4.0
7.1578	528.813324743	3.0
7.168	528.887104664	2.0
7.1782	528.960529778	5.0
7.1885	529.03431644	5.0
7.1987	529.107033613	1.0
7.209	529.18010885	2.0
7.2192	529.252124908	2.0
7.2294	529.323794642	2.0
7.2397	529.395817281	3.0
7.2499	529.466795999	3.0
7.2602	529.538124219	2.0
7.2704	529.608418584	1.0
7.2806	529.678374903	0.0
7.2909	529.748675692	4.0
7.3011	529.817957516	4.0
7.3114	529.887580487	2.0
7.3216	529.956194318	2.0
7.3318	530.024478187	4.0
7.3421	530.093098288	5.0
7.3523	530.160723786	6.0
7.3626	530.228682275	4.0
7.3728	530.295655751	3.0
7.383	530.362307151	4.0
7.3933	530.429286746	2.0
7.4035	530.495295516	1.0
7.4138	530.561629316	2.0
7.424	530.627001651	5.0
7.4342	530.692059611	3.0
7.4445	530.75743792	6.0
7.4547	530.821868613	2.0
7.465	530.886616565	0.0
7.4752	530.950426039	0.0
7.4854	531.013928653	0.0
7.4957	531.077743957	1.0
7.5059	531.1406343	3.0
7.5162	531.203834318	8.0
7.5264	531.266118294	5.0
7.5366	531.328102746	1.0
7.5469	531.390392412	3.0
7.5571	531.451779231	2.0
7.5674	531.513468321	3.0
7.5776	531.574263269	0.0
7.5878	531.634765853	3.0
7.5981	531.695566356	2.0
7.6083	531.755485595	2.0
7.6186	531.815699879	0.0
7.6288	531.875041397	3.0
7.639	531.934097541	4.0
7.6493	531.993444482	1.0
7.6595	532.051931226	1.0
7.6698	532.110705963	4.0
7.68	532.168628798	3.0
7.6902	532.226273083	1.0
7.7005	532.284201211	1.0
7.7107	532.341289709	1.0
7.721	532.398659313	2.0
7.7312	532.455197382	3.0
7.7414	532.51146356	1.0
7.7517	532.568006796	2.0
7.7619	532.623730474	5.0
7.7722	532.679728539	1.0
7.7824	532.734914948	3.0
7.7926	532.789835966	3.0
7.8029	532.845027418	1.0
7.8131	532.899418906	1.0
7.8234	532.954078221	2.0
7.8336	533.007945284	3.0
7.8438	533.061553301	1.0
7.8541	533.115425286	3.0
7.8643	533.168516433	1.0
