TL-DOS Lehrstuhlversuch
detector=R1408203
job_number=2015-11-17-002
irradiation_dose [mSv]=0.05

[BEGIN DATA]
time [sec] 	 temperature [K] 	 photoncount 
0.0	216.220083974	0.0
0.0102	217.385840765	0.0
0.0205	218.559173551	0.0
0.0307	219.717311641	3.0
0.041	220.882976215	1.0
0.0512	222.033545396	0.0
0.0614	223.180367033	0.0
0.0717	224.334641611	2.0
0.0819	225.473968297	1.0
0.0922	226.620699215	1.0
0.1024	227.752579933	3.0
0.1126	228.880773976	0.0
0.1229	230.016299904	1.0
0.1331	231.137120735	1.0
0.1434	232.265225534	1.0
0.1536	233.37872134	1.0
0.1638	234.488590355	1.0
0.1741	235.605672163	0.0
0.1843	236.708287727	1.0
0.1946	237.818068946	0.0
0.2048	238.913478463	1.0
0.215	240.005320099	2.0
0.2253	241.104257372	0.0
0.2355	242.188963372	0.0
0.2458	243.280718638	0.0
0.256	244.358335639	0.0
0.2662	245.43244271	0.0
0.2765	246.513530166	0.0
0.2867	247.580617505	0.0
0.297	248.654639609	0.0
0.3072	249.714753094	0.0
0.3174	250.771413659	0.0
0.3277	251.834941229	0.0
0.3379	252.884696083	0.0
0.3482	253.941273062	0.0
0.3584	254.984167336	0.0
0.3686	256.023664777	0.0
0.3789	257.069917682	0.0
0.3891	258.102621578	0.0
0.3994	259.14203679	0.0
0.4096	260.167991542	0.0
0.4198	261.190604635	0.0
0.4301	262.219863464	0.0
0.4403	263.235793359	0.0
0.4506	264.258325558	0.0
0.4608	265.267615933	0.0
0.471	266.273618927	0.0
0.4813	267.286159711	0.0
0.4915	268.285588061	0.0
0.5018	269.291511476	0.0
0.512	270.28440815	0.0
0.5222	271.274070839	0.0
0.5325	272.270165127	0.0
0.5427	273.253359963	0.0
0.553	274.242944366	0.0
0.5632	275.219713619	0.0
0.5734	276.193301416	0.0
0.5837	277.173216345	0.0
0.5939	278.140441345	0.0
0.6042	279.113952127	0.0
0.6144	280.074855913	0.0
0.6246	281.032629919	0.0
0.6349	281.996628287	0.0
0.6451	282.948142846	0.0
0.6554	283.905841087	0.0
0.6656	284.851137107	0.0
0.6758	285.793354182	0.0
0.6861	286.741694518	0.0
0.6963	287.677753817	0.0
0.7066	288.619896359	0.0
0.7168	289.549838125	0.0
0.727	290.476750957	0.0
0.7373	291.409687592	1.0
0.7475	292.330542668	0.0
0.7578	293.257382177	0.0
0.768	294.172219086	0.0
0.7782	295.08407626	0.0
0.7885	296.001859392	0.0
0.7987	296.907757204	0.0
0.809	297.819542246	0.0
0.8192	298.719519643	0.0
0.8294	299.616565704	0.0
0.8397	300.519441469	0.0
0.8499	301.410624965	0.0
0.8602	302.307600065	0.0
0.8704	303.19295931	1.0
0.8806	304.075434832	1.0
0.8909	304.963645368	1.0
0.9011	305.840353549	0.0
0.9114	306.722759264	0.0
0.9216	307.593737796	0.0
0.9318	308.461879446	0.0
0.9421	309.335662956	0.0
0.9523	310.198130943	0.0
0.9626	311.066203918	0.0
0.9728	311.923035322	0.0
0.983	312.777075921	0.0
0.9933	313.636666741	0.0
1.0035	314.485125833	0.0
1.0138	315.339098874	0.0
1.024	316.182012937	0.0
1.0342	317.022181527	0.0
1.0445	317.867810186	1.0
1.0547	318.702487928	0.0
1.065	319.542590056	0.0
1.0752	320.371812836	0.0
1.0854	321.198334735	0.0
1.0957	322.030228018	0.0
1.1059	322.851348257	0.0
1.1162	323.677804775	0.0
1.1264	324.493558656	0.0
1.1366	325.306655526	2.0
1.1469	326.125036534	0.0
1.1571	326.932819482	1.0
1.1674	327.745852033	1.0
1.1776	328.548355787	0.0
1.1878	329.348245689	0.0
1.1981	330.153333898	1.0
1.2083	330.94799619	0.0
1.2186	331.747822817	0.0
1.2288	332.537291664	1.0
1.239	333.324189114	0.0
1.2493	334.116200438	0.0
1.2595	334.897955189	0.0
1.2698	335.684790393	1.0
1.28	336.461436056	1.0
1.2902	337.235552089	2.0
1.3005	338.014698932	0.0
1.3107	338.783755799	0.0
1.321	339.557810596	0.0
1.3312	340.32184136	1.0
1.3414	341.083383582	0.0
1.3517	341.849874899	0.0
1.3619	342.60644013	0.0
1.3722	343.367922111	0.0
1.3824	344.119542876	1.0
1.3926	344.868715521	1.0
1.4029	345.622756874	0.0
1.4131	346.367033367	1.0
1.4234	347.116146749	1.0
1.4336	347.85555909	1.0
1.4438	348.592563074	1.0
1.4541	349.334356685	0.0
1.4643	350.066544044	1.0
1.4746	350.803489729	0.0
1.4848	351.530891943	0.0
1.495	352.25592492	1.0
1.5053	352.985669725	0.0
1.5155	353.705964313	0.0
1.5258	354.430939937	0.0
1.536	355.146527103	0.0
1.5462	355.859783515	0.0
1.5565	356.577675222	1.0
1.5667	357.28627021	3.0
1.577	357.9994702	1.0
1.5872	358.703434228	1.0
1.5974	359.405105359	0.0
1.6077	360.111336496	1.0
1.6179	360.808421918	2.0
1.6282	361.510037544	2.0
1.6384	362.202567225	2.0
1.6486	362.892841253	1.0
1.6589	363.58760122	0.0
1.6691	364.273364023	2.0
1.6794	364.963583447	3.0
1.6896	365.644864508	2.0
1.6998	366.323926554	1.0
1.7101	367.007401674	0.0
1.7203	367.68202577	0.0
1.7306	368.361034099	0.0
1.7408	369.031249249	0.0
1.751	369.699281426	1.0
1.7613	370.371654997	0.0
1.7715	371.035321309	2.0
1.7818	371.703300642	1.0
1.792	372.362629622	2.0
1.8022	373.019811087	1.0
1.8125	373.681263429	2.0
1.8227	374.334149943	3.0
1.833	374.991279422	3.0
1.8432	375.639899053	2.0
1.8534	376.286406052	3.0
1.8637	376.937114556	3.0
1.8739	377.579396366	2.0
1.8842	378.225852223	4.0
1.8944	378.863936456	0.0
1.9046	379.499942371	4.0
1.9149	380.140081548	2.0
1.9251	380.771930903	1.0
1.9354	381.407886508	3.0
1.9456	382.035606467	6.0
1.9558	382.661281866	5.0
1.9661	383.291023391	3.0
1.9763	383.912609744	6.0
1.9866	384.538235649	2.0
1.9968	385.155759679	2.0
2.007	385.771272359	2.0
2.0173	386.390785119	6.0
2.0275	387.002275169	4.0
2.0378	387.617739159	6.0
2.048	388.22523287	3.0
2.0582	388.830747901	2.0
2.0685	389.44019804	1.0
2.0787	390.04175578	2.0
2.089	390.647222912	8.0
2.0992	391.244849225	8.0
2.1094	391.840528996	7.0
2.1197	392.440079959	5.0
2.1299	393.031866718	6.0
2.1402	393.627499369	10.0
2.1504	394.215418558	4.0
2.1606	394.801422822	5.0
2.1709	395.391235399	12.0
2.1811	395.973409885	9.0
2.1914	396.559367794	9.0
2.2016	397.13773753	10.0
2.2118	397.714223445	11.0
2.2221	398.294455815	10.0
2.2323	398.867174158	14.0
2.2426	399.44361447	12.0
2.2528	400.012589863	3.0
2.263	400.579712033	9.0
2.2733	401.150519805	9.0
2.2835	401.713935598	12.0
2.2938	402.281012907	6.0
2.304	402.840746546	11.0
2.3142	403.398657065	7.0
2.3245	403.960193321	16.0
2.3347	404.514457665	10.0
2.345	405.072324051	17.0
2.3552	405.62296605	13.0
2.3654	406.17181454	4.0
2.3757	406.724229875	10.0
2.3859	407.269491415	15.0
2.3962	407.818296489	9.0
2.4064	408.35999452	9.0
2.4166	408.899928175	10.0
2.4269	409.443370739	7.0
2.4371	409.979775705	8.0
2.4474	410.519666649	14.0
2.4576	411.052565988	13.0
2.4678	411.583729609	11.0
2.4781	412.118345145	12.0
2.4883	412.646037393	6.0
2.4986	413.177158996	8.0
2.5088	413.701402558	7.0
2.519	414.223938595	10.0
2.5293	414.749870478	10.0
2.5395	415.268991527	9.0
2.5498	415.791486229	9.0
2.56	416.307214608	9.0
2.5702	416.821263197	9.0
2.5805	417.338652474	10.0
2.5907	417.849341544	11.0
2.601	418.36334947	9.0
2.6112	418.870700977	10.0
2.6214	419.376399978	5.0
2.6317	419.885385405	7.0
2.6419	420.387779455	6.0
2.6522	420.893438453	5.0
2.6624	421.392549151	11.0
2.6726	421.890034185	3.0
2.6829	422.390752265	4.0
2.6931	422.884986029	6.0
2.7034	423.38243171	7.0
2.7136	423.873435453	5.0
2.7238	424.362839937	9.0
2.7341	424.855424954	5.0
2.7443	425.341630978	4.0
2.7546	425.830996749	8.0
2.7648	426.314025217	7.0
2.775	426.795480403	6.0
2.7853	427.280064459	5.0
2.7955	427.758373137	14.0
2.8058	428.239790238	8.0
2.816	428.714972972	5.0
2.8262	429.188607978	9.0
2.8365	429.665321033	10.0
2.8467	430.135860639	5.0
2.857	430.609458179	9.0
2.8672	431.076922615	7.0
2.8774	431.542864463	8.0
2.8877	432.011834363	4.0
2.8979	432.474731089	6.0
2.9082	432.940636079	9.0
2.9184	433.400507585	14.0
2.9286	433.858881232	6.0
2.9389	434.320233749	7.0
2.9491	434.775611737	13.0
2.9594	435.233949125	9.0
2.9696	435.68635103	6.0
2.9798	436.137279407	16.0
2.9901	436.591138268	7.0
3.0003	437.039119642	7.0
3.0106	437.490012349	12.0
3.0208	437.935065981	14.0
3.031	438.378670018	7.0
3.0413	438.825156941	9.0
3.0515	439.265861844	9.0
3.0618	439.709430791	10.0
3.072	440.147255506	11.0
3.0822	440.583654172	9.0
3.0925	441.022888897	14.0
3.1027	441.456435519	8.0
3.113	441.892799665	13.0
3.1232	442.323512881	12.0
3.1334	442.752823212	20.0
3.1437	443.184923535	10.0
3.1539	443.611428147	15.0
3.1642	444.040704517	3.0
3.1744	444.464421745	10.0
3.1846	444.886758874	15.0
3.1949	445.311840679	12.0
3.2051	445.731417662	18.0
3.2154	446.153721382	6.0
3.2256	446.570556257	14.0
3.2358	446.986033449	9.0
3.2461	447.404210736	9.0
3.2563	447.816972613	15.0
3.2666	448.232416939	10.0
3.2768	448.642481249	9.0
3.287	449.051209928	10.0
3.2973	449.462594845	5.0
3.3075	449.868652315	9.0
3.3178	450.277348662	7.0
3.328	450.680752379	9.0
3.3382	451.082842161	10.0
3.3485	451.487545036	6.0
3.3587	451.887006995	6.0
3.369	452.28906497	9.0
3.3792	452.685916282	14.0
3.3894	453.081475	10.0
3.3997	453.479604367	10.0
3.4099	453.872577946	8.0
3.4202	454.268105374	9.0
3.4304	454.65851071	9.0
3.4406	455.047644447	11.0
3.4509	455.439307079	10.0
3.4611	455.825897667	9.0
3.4714	456.215000623	10.0
3.4816	456.599064683	4.0
3.4918	456.981877799	8.0
3.5021	457.367178734	7.0
3.5123	457.747490009	6.0
3.5226	458.130272843	7.0
3.5328	458.508098628	9.0
3.543	458.884693788	11.0
3.5533	459.263736356	11.0
3.5635	459.637870312	5.0
3.5738	460.014435682	6.0
3.584	460.386124518	7.0
3.5942	460.756602718	5.0
3.6045	461.129488575	12.0
3.6147	461.497545548	8.0
3.625	461.867994442	11.0
3.6352	462.233646011	11.0
3.6454	462.598106609	3.0
3.6557	462.964935755	8.0
3.6659	463.327014452	6.0
3.6762	463.69144622	10.0
3.6864	464.051158584	8.0
3.6966	464.409699321	9.0
3.7069	464.770570135	9.0
3.7171	465.126767661	6.0
3.7274	465.485280036	8.0
3.7376	465.839149665	15.0
3.7478	466.191866697	16.0
3.7581	466.546875959	16.0
3.7683	466.897287841	6.0
3.7786	467.249976971	7.0
3.7888	467.598098767	17.0
3.799	467.945086687	11.0
3.8093	468.294329605	6.0
3.8195	468.639049816	8.0
3.8298	468.986010288	13.0
3.84	469.328477611	9.0
3.8502	469.669829476	14.0
3.8605	470.013399712	6.0
3.8707	470.352520702	10.0
3.881	470.693845565	8.0
3.8912	471.03075026	12.0
3.9014	471.366557616	9.0
3.9117	471.704547309	9.0
3.9219	472.038160025	10.0
3.9322	472.373940817	13.0
3.9424	472.705373236	8.0
3.9526	473.03572614	10.0
3.9629	473.368225935	8.0
3.9731	473.696419847	9.0
3.9834	474.026746619	11.0
3.9936	474.352795648	10.0
4.0038	474.677782696	7.0
4.0141	475.004881764	12.0
4.0243	475.327744888	3.0
4.0346	475.652706228	10.0
4.0448	475.973459309	10.0
4.055	476.293167658	11.0
4.0653	476.614953721	10.0
4.0755	476.932572644	10.0
4.0858	477.252255703	13.0
4.096	477.567798856	5.0
4.1062	477.882314246	5.0
4.1165	478.198873602	15.0
4.1267	478.511333505	12.0
4.137	478.825824016	13.0
4.1472	479.136241865	8.0
4.1574	479.445648645	5.0
4.1677	479.757066192	4.0
4.1779	480.064450871	6.0
4.1882	480.373833176	11.0
4.1984	480.67920897	6.0
4.2086	480.983590118	8.0
4.2189	481.289949372	6.0
4.2291	481.592341264	6.0
4.2394	481.896698334	13.0
4.2496	482.197113971	3.0
4.2598	482.496551117	7.0
4.2701	482.797934239	6.0
4.2803	483.09541444	4.0
4.2906	483.3948279	9.0
4.3008	483.690363945	9.0
4.311	483.984937394	11.0
4.3213	484.281425211	7.0
4.3315	484.574073501	6.0
4.3418	484.868623647	9.0
4.352	485.159359361	10.0
4.3622	485.449148112	5.0
4.3725	485.740820137	3.0
4.3827	486.028714999	7.0
4.393	486.318480827	5.0
4.4032	486.604494179	9.0
4.4134	486.88957595	7.0
4.4237	487.176510404	7.0
4.4339	487.459729048	5.0
4.4442	487.744788268	5.0
4.4544	488.026155962	8.0
4.4646	488.306607207	5.0
4.4749	488.588881043	8.0
4.4851	488.867499424	4.0
4.4954	489.147928484	7.0
4.5056	489.424725979	7.0
4.5158	489.700621911	10.0
4.5261	489.978310829	4.0
4.5363	490.252403668	5.0
4.5466	490.528277775	4.0
4.5568	490.800579304	7.0
4.567	491.071993914	10.0
4.5773	491.345172387	9.0
4.5875	491.614813191	8.0
4.5978	491.88620633	10.0
4.608	492.15408492	5.0
4.6182	492.421090997	10.0
4.6285	492.689832287	3.0
4.6387	492.955093369	8.0
4.649	493.222078325	7.0
4.6592	493.485605817	4.0
4.6694	493.748274967	15.0
4.6797	494.012651147	4.0
4.6899	494.273603647	3.0
4.7002	494.536252019	6.0
4.7104	494.795499087	3.0
4.7206	495.053901755	6.0
4.7309	495.313983726	5.0
4.7411	495.570697626	7.0
4.7514	495.829079854	9.0
4.7616	496.084116024	4.0
4.7718	496.338321509	6.0
4.7821	496.594179021	9.0
4.7923	496.846723169	6.0
4.8026	497.100908546	10.0
4.8128	497.351802215	6.0
4.823	497.601878692	4.0
4.8333	497.853580361	4.0
4.8435	498.102022485	8.0
4.8538	498.35207918	8.0
4.864	498.598897634	8.0
4.8742	498.844912169	3.0
4.8845	499.092525498	6.0
4.8947	499.336932227	11.0
4.905	499.582927302	5.0
4.9152	499.825736732	7.0
4.9254	500.067755303	9.0
4.9357	500.311346699	6.0
4.9459	500.551783578	8.0
4.9562	500.793783004	5.0
4.9664	501.03264853	3.0
4.9766	501.270736041	8.0
4.9869	501.510370831	6.0
4.9971	501.746902343	8.0
5.0074	501.984971021	6.0
5.0176	502.219956702	2.0
5.0278	502.454177006	7.0
5.0381	502.689919456	4.0
5.0483	502.922609034	4.0
5.0586	503.15681081	8.0
5.0688	503.387979666	9.0
5.079	503.618395576	7.0
5.0893	503.850308909	10.0
5.0995	504.079218957	6.0
5.1098	504.309616641	4.0
5.12	504.537030667	2.0
5.1302	504.763703979	10.0
5.1405	504.99185039	11.0
5.1507	505.217042298	9.0
5.161	505.443697678	5.0
5.1712	505.667417864	5.0
5.1814	505.890409367	3.0
5.1917	506.114850042	2.0
5.2019	506.336384203	3.0
5.2122	506.559358065	4.0
5.2224	506.779444409	5.0
5.2326	506.998813906	5.0
5.2429	507.219609036	2.0
5.2531	507.437544862	2.0
5.2634	507.656897005	4.0
5.2736	507.873408531	4.0
5.2838	508.089214852	7.0
5.2941	508.306423651	2.0
5.3043	508.52081959	5.0
5.3146	508.73660884	1.0
5.3248	508.949603613	5.0
5.335	509.161904635	5.0
5.3453	509.375585356	5.0
5.3555	509.586498904	3.0
5.3658	509.798783133	3.0
5.376	510.008318274	8.0
5.3862	510.217170934	3.0
5.3965	510.427380881	4.0
5.4067	510.634868603	3.0
5.417	510.843704742	1.0
5.4272	511.049836446	5.0
5.4374	511.255296754	2.0
5.4477	511.462092304	1.0
5.4579	511.666209844	2.0
5.4682	511.8716539	3.0
5.4784	512.074437448	4.0
5.4886	512.276560506	3.0
5.4989	512.479997116	0.0
5.5091	512.680799217	1.0
5.5194	512.882906285	3.0
5.5296	513.082396061	3.0
5.5398	513.281236075	3.0
5.5501	513.481368306	0.0
5.5603	513.678908818	1.0
5.5706	513.877733102	0.0
5.5808	514.073982606	3.0
5.591	514.269592901	1.0
5.6013	514.466474424	2.0
5.6115	514.660806325	3.0
5.6218	514.856401147	7.0
5.632	515.049463009	2.0
5.6422	515.241896045	6.0
5.6525	515.435579662	1.0
5.6627	515.626755069	0.0
5.673	515.819172883	1.0
5.6832	516.00909888	4.0
5.6934	516.198406265	1.0
5.7037	516.388943918	1.0
5.7139	516.577014101	3.0
5.7242	516.766306511	3.0
5.7344	516.953147579	2.0
5.7446	517.139380082	4.0
5.7549	517.326822869	0.0
5.7651	517.511838267	2.0
5.7754	517.698056038	2.0
5.7856	517.881862284	2.0
5.7958	518.06506985	0.0
5.8061	518.249468042	2.0
5.8163	518.431478272	0.0
5.8266	518.614671345	0.0
5.8368	518.795492063	1.0
5.847	518.975723826	3.0
5.8573	519.157126875	3.0
5.8675	519.336180748	1.0
5.8778	519.516398254	1.0
5.888	519.694281937	1.0
5.8982	519.871586231	3.0
5.9085	520.050042787	0.0
5.9187	520.226188325	2.0
5.929	520.403478594	1.0
5.9392	520.578472948	1.0
5.9494	520.752897324	2.0
5.9597	520.928455246	1.0
5.9699	521.101739687	2.0
5.9802	521.276150266	1.0
5.9904	521.448302222	0.0
6.0006	521.619893458	0.0
6.0109	521.792599828	0.0
6.0211	521.963069644	0.0
6.0314	522.134647307	2.0
6.0416	522.304003033	1.0
6.0518	522.472807148	0.0
6.0621	522.642708282	1.0
6.0723	522.810409192	1.0
6.0826	522.979199953	0.0
6.0928	523.145804869	0.0
6.103	523.311867132	0.0
6.1133	523.479008597	0.0
6.1235	523.643985574	2.0
6.1338	523.810034701	0.0
6.144	523.973933486	0.0
6.1542	524.137298433	1.0
6.1645	524.301725053	0.0
6.1747	524.464022343	1.0
6.185	524.627374367	4.0
6.1952	524.788610977	0.0
6.2054	524.94932242	0.0
6.2157	525.111078291	0.0
6.2259	525.270739418	0.0
6.2362	525.431438148	0.0
6.2464	525.590055825	2.0
6.2566	525.748156864	1.0
6.2669	525.907285367	0.0
6.2771	526.064353151	0.0
6.2874	526.222441684	1.0
6.2976	526.378482965	1.0
6.3078	526.534016001	2.0
6.3181	526.690559812	1.0
6.3283	526.845076375	0.0
6.3386	527.000597108	0.0
6.3488	527.154103842	0.0
6.359	527.307110586	1.0
6.3693	527.461111687	0.0
6.3795	527.613118469	0.0
6.3898	527.766113109	0.0
6.4	527.917126464	3.0
6.4102	528.067647951	1.0
6.4205	528.219147643	0.0
6.4307	528.368685409	2.0
6.441	528.519194988	0.0
6.4512	528.667755464	0.0
6.4614	528.81583206	0.0
6.4717	528.964870973	1.0
6.4819	529.111979828	0.0
6.4922	529.26004471	0.0
6.5024	529.406192148	0.0
6.5126	529.551863565	0.0
6.5229	529.698481669	1.0
6.5331	529.843201064	1.0
6.5434	529.988860958	0.0
6.5536	530.132634552	0.0
6.5638	530.275939858	0.0
6.5741	530.420176474	0.0
6.5843	530.562545221	1.0
6.5946	530.705839191	0.0
6.6048	530.847277499	0.0
6.615	530.988255126	1.0
6.6253	531.130148935	0.0
6.6355	531.270205215	0.0
6.6458	531.41117169	0.0
6.656	531.550312645	0.0
6.6662	531.6890004	0.0
6.6765	531.828589457	3.0
6.6867	531.96637083	0.0
6.697	532.105047615	0.0
6.7072	532.241928531	1.0
6.7174	532.378363609	0.0
6.7277	532.515685349	0.0
6.7379	532.651228768	1.0
6.7482	532.787653053	1.0
6.7584	532.92231064	0.0
6.7686	533.05652963	0.0
6.7789	533.191620881	1.0
6.7891	533.324962695	0.0
6.7994	533.459171068	1.0
6.8096	533.591641439	2.0
6.8198	533.723680337	0.0
6.8301	533.856577327	3.0
6.8403	533.987753297	1.0
6.8506	534.119781751	1.0
6.8608	534.250100432	0.0
6.871	534.379994649	0.0
6.8813	534.51073302	2.0
6.8915	534.639778325	1.0
6.9018	534.769662267	1.0
6.912	534.897864208	1.0
6.9222	535.025648579	1.0
6.9325	535.154263393	0.0
6.9427	535.281212641	2.0
6.953	535.408986905	1.0
6.9632	535.535106487	1.0
6.9734	535.660815283	0.0
6.9837	535.787341032	0.0
6.9939	535.912228269	0.0
7.0042	536.037927121	0.0
7.0144	536.161998168	1.0
7.0246	536.285665101	0.0
7.0349	536.410135718	0.0
7.0451	536.532994437	1.0
7.0554	536.656651587	0.0
7.0656	536.778707373	0.0
7.0758	536.900365609	1.0
7.0861	537.022814475	3.0
7.0963	537.143677624	1.0
7.1066	537.265326236	1.0
7.1168	537.385399495	1.0
7.127	537.505081661	0.0
7.1373	537.625541614	0.0
7.1475	537.744441608	0.0
7.1578	537.864114306	1.0
7.168	537.982237239	0.0
7.1782	538.099975431	0.0
7.1885	538.218478777	0.0
7.1987	538.335447502	0.0
7.209	538.453176381	1.0
7.2192	538.569380667	0.0
7.2294	538.685206461	0.0
7.2397	538.801784982	1.0
7.2499	538.916853807	0.0
7.2602	539.032670439	0.0
7.2704	539.146987242	2.0
7.2806	539.260931701	0.0
7.2909	539.37561666	0.0
7.3011	539.488816446	0.0
7.3114	539.602751891	0.0
7.3216	539.71521187	1.0
7.3318	539.827305552	0.0
7.3421	539.940127706	0.0
7.3523	540.05148881	1.0
7.3626	540.163573625	1.0
7.3728	540.274206939	1.0
7.383	540.384479906	0.0
7.3933	540.495469513	1.0
7.4035	540.605021801	0.0
7.4138	540.715286045	0.0
7.424	540.824122363	1.0
7.4342	540.932604189	0.0
7.4445	541.041791014	0.0
7.4547	541.149563866	1.0
7.465	541.25803711	0.0
7.4752	541.365105622	0.0
7.4854	541.471825399	0.0
7.4957	541.579238725	0.0
7.5059	541.685261044	1.0
7.5162	541.791972379	2.0
7.5264	541.897301799	1.0
7.5366	542.002288148	0.0
7.5469	542.10795678	0.0
7.5571	542.212257001	1.0
7.5674	542.317235045	1.0
7.5776	542.42085362	1.0
7.5878	542.524134697	0.0
7.5981	542.628086975	2.0
7.6083	542.730693068	0.0
7.6186	542.833965975	1.0
7.6288	542.935901494	2.0
7.639	543.037504997	0.0
7.6493	543.139768799	1.0
7.6595	543.240708282	1.0
7.6698	543.342303748	2.0
7.68	543.442583549	2.0
7.6902	543.542536727	0.0
7.7005	543.643139479	0.0
7.7107	543.742439421	0.0
7.721	543.842384692	0.0
7.7312	543.941035669	1.0
7.7414	544.039365328	1.0
7.7517	544.138334009	1.0
7.7619	544.236021043	0.0
7.7722	544.334342923	0.0
7.7824	544.431391532	0.0
7.7926	544.528124041	0.0
7.8029	544.625485194	0.0
7.8131	544.721585517	0.0
7.8234	544.818310375	0.0
7.8336	544.913782643	1.0
7.8438	545.008943945	1.0
7.8541	545.104723681	1.0
7.8643	545.199263065	0.0
7.8746	545.294416841	0.0
7.8848	545.388338371	0.0
7.895	545.481953988	1.0
7.9053	545.576177993	0.0
7.9155	545.669181793	0.0
7.9258	545.762790005	1.0
7.936	545.855185987	0.0
7.9462	545.947281024	1.0
7.9565	546.039974567	0.0
7.9667	546.131467725	0.0
7.977	546.223555478	0.0
7.9872	546.314450691	0.0
7.9974	546.405049847	0.0
8.0077	546.496237787	1.0
8.0179	546.58624484	1.0
8.0282	546.67683683	0.0
8.0384	546.76625565	0.0
8.0486	546.855383222	1.0
8.0589	546.945090015	0.0
8.0691	547.033635102	0.0
8.0794	547.122755624	3.0
8.0896	547.210722032	0.0
8.0998	547.298401923	1.0
8.1101	547.386651626	0.0
8.1203	547.473758493	0.0
8.1306	547.561431448	0.0
8.1408	547.647969036	1.0
