TL-DOS Lehrstuhlversuch
detector=R1407204
job_number=2015-11-16-002
irradiation_dose [mSv]=0.07

[BEGIN DATA]
time [sec] 	 temperature [K] 	 photoncount 
0.0	72.0327426331	0.0
0.0102	74.4458075483	0.0
0.0205	76.869936253	1.0
0.0307	79.2581226389	0.0
0.041	81.6572587475	2.0
0.0512	84.0208230999	0.0
0.0614	86.3722312293	0.0
0.0717	88.7344204547	3.0
0.0819	91.0615857319	0.0
0.0922	93.3994209529	1.0
0.1024	95.70259332	2.0
0.1126	97.9939200705	2.0
0.1229	100.295752447	2.0
0.1331	102.56345578	2.0
0.1434	104.841556427	0.0
0.1536	107.085879898	4.0
0.1638	109.318660423	2.0
0.1741	111.561678142	2.0
0.1843	113.771438857	1.0
0.1946	115.991331222	0.0
0.2048	118.178309459	0.0
0.215	120.354039687	0.0
0.2253	122.539745536	0.0
0.2355	124.693044139	1.0
0.2458	126.856215514	0.0
0.256	128.98731376	0.0
0.2662	131.107451396	0.0
0.2765	133.237309764	0.0
0.2867	135.33558893	0.0
0.297	137.443488608	0.0
0.3072	139.520134664	0.0
0.3174	141.586100168	0.0
0.3277	143.661538026	0.0
0.3379	145.706203571	0.0
0.3482	147.760243812	0.0
0.3584	149.783828999	0.0
0.3686	151.797006535	0.0
0.3789	153.819414396	0.0
0.3891	155.811836213	0.0
0.3994	157.813393191	0.0
0.4096	159.78527328	0.0
0.4198	161.747011646	1.0
0.4301	163.717744491	0.0
0.4403	165.659257473	0.0
0.4506	167.609672201	1.0
0.4608	169.53116832	0.0
0.471	171.442781851	1.0
0.4813	173.36316004	0.0
0.4915	175.25506497	0.0
0.5018	177.155644195	0.0
0.512	179.028043718	0.0
0.5222	180.890813164	0.0
0.5325	182.762123321	0.0
0.5427	184.605687746	0.0
0.553	186.457704827	0.0
0.5632	188.282262232	0.0
0.5734	190.097435621	0.0
0.5837	191.920931494	1.0
0.5939	193.717390573	0.0
0.6042	195.522086333	0.0
0.6144	197.300024045	0.0
0.6246	199.068817514	0.0
0.6349	200.845720818	0.0
0.6451	202.596278151	0.0
0.6554	204.354861707	0.0
0.6656	206.087370918	0.0
0.6758	207.810969531	0.0
0.6861	209.542470764	0.0
0.6963	211.248299197	0.0
0.7066	212.961948774	0.0
0.7168	214.650190236	1.0
0.727	216.329748778	0.0
0.7373	218.017008018	0.0
0.7475	219.67925043	0.0
0.7578	221.349114146	0.0
0.768	222.994218956	0.0
0.7782	224.630862705	0.0
0.7885	226.27501039	1.0
0.7987	227.894780457	0.0
0.809	229.521977095	0.0
0.8192	231.125047447	0.0
0.8294	232.71987293	1.0
0.8397	234.322010612	3.0
0.8499	235.900393556	0.0
0.8602	237.486013312	0.0
0.8704	239.048123239	0.0
0.8806	240.602198963	0.0
0.8909	242.163400051	1.0
0.9011	243.701453363	1.0
0.9114	245.246558578	0.0
0.9216	246.768754669	0.0
0.9318	248.28312184	1.0
0.9421	249.804432314	0.0
0.9523	251.303186467	0.0
0.9626	252.808812337	0.0
0.9728	254.29211444	0.0
0.983	255.767787662	0.0
0.9933	257.250226776	0.0
1.0035	258.710685911	0.0
1.0138	260.177841182	0.0
1.024	261.623243086	0.0
1.0342	263.061211037	0.0
1.0445	264.505772003	1.0
1.0547	265.928914605	0.0
1.065	267.358582249	0.0
1.0752	268.767052351	1.0
1.0854	270.168278446	1.0
1.0957	271.575929097	1.0
1.1059	272.96270865	0.0
1.1162	274.355846522	0.0
1.1264	275.728328475	0.0
1.1366	277.093751514	0.0
1.1469	278.465434954	0.0
1.1571	279.816780578	1.0
1.1674	281.174322059	0.0
1.1776	282.511735405	0.0
1.1878	283.842270201	0.0
1.1981	285.178905437	2.0
1.2083	286.495722513	1.0
1.2186	287.818577134	0.0
1.2288	289.121817919	0.0
1.239	290.418355909	0.0
1.2493	291.720838466	1.0
1.2595	293.004009241	0.0
1.2698	294.293063294	1.0
1.28	295.563004669	1.0
1.2902	296.826414514	0.0
1.3005	298.095617034	0.0
1.3107	299.346001213	1.0
1.321	300.602118344	2.0
1.3312	301.83961115	2.0
1.3414	303.070739315	1.0
1.3517	304.307512145	0.0
1.3619	305.525947465	1.0
1.3722	306.749969254	1.0
1.3824	307.955842592	2.0
1.3926	309.155513913	0.0
1.4029	310.360685671	2.0
1.4131	311.547988466	1.0
1.4234	312.740734988	1.0
1.4336	313.915796774	0.0
1.4438	315.084815013	0.0
1.4541	316.259193146	0.0
1.4643	317.416158889	1.0
1.4746	318.578429266	0.0
1.4848	319.723466774	1.0
1.495	320.862615154	1.0
1.5053	322.006986477	1.0
1.5155	323.134390318	1.0
1.5258	324.266963253	1.0
1.536	325.382743639	0.0
1.5462	326.492785373	0.0
1.5565	327.607916597	3.0
1.5667	328.706513879	0.0
1.577	329.810148178	1.0
1.5872	330.897418999	0.0
1.5974	331.979097797	1.0
1.6077	333.065736042	0.0
1.6179	334.136262807	2.0
1.6282	335.211697888	2.0
1.6384	336.271187599	3.0
1.6486	337.325228169	1.0
1.6589	338.384101466	6.0
1.6691	339.427274952	3.0
1.6794	340.47523134	5.0
1.6896	341.507649781	1.0
1.6998	342.534758314	1.0
1.7101	343.566576092	2.0
1.7203	344.583095208	5.0
1.7306	345.604275017	4.0
1.7408	346.610313893	3.0
1.751	347.611178536	3.0
1.7613	348.616632097	1.0
1.7715	349.607177896	0.0
1.7818	350.602265301	1.0
1.792	351.582598642	4.0
1.8022	352.557889959	1.0
1.8125	353.53765294	0.0
1.8227	354.502889072	3.0
1.833	355.472550766	1.0
1.8432	356.427835381	7.0
1.8534	357.378206801	1.0
1.8637	358.332935629	0.0
1.8739	359.273508787	3.0
1.8842	360.218394429	3.0
1.8944	361.149270343	8.0
1.9046	362.075358601	3.0
1.9149	363.00569293	5.0
1.9251	363.922233283	8.0
1.9354	364.84297593	2.0
1.9456	365.750066817	7.0
1.9558	366.652492377	1.0
1.9661	367.559055516	3.0
1.9763	368.452177132	5.0
1.9866	369.349393669	7.0
1.9968	370.233307264	4.0
2.007	371.112674737	7.0
2.0173	371.99607407	5.0
2.0275	372.866375327	5.0
2.0378	373.740666874	6.0
2.048	374.601995386	3.0
2.0582	375.458893936	6.0
2.0685	376.319721325	8.0
2.0787	377.167785311	7.0
2.089	378.019737631	7.0
2.0992	378.859058137	5.0
2.1094	379.694061871	13.0
2.1197	380.532894059	12.0
2.1299	381.359288964	9.0
2.1402	382.189472851	5.0
2.1504	383.007347682	13.0
2.1606	383.821016041	5.0
2.1709	384.638415031	10.0
2.1811	385.443694527	12.0
2.1914	386.252666191	12.0
2.2016	387.049643311	15.0
2.2118	387.84252144	9.0
2.2221	388.639034877	11.0
2.2323	389.423738488	14.0
2.2426	390.212039928	13.0
2.2528	390.9886533	15.0
2.263	391.761272414	6.0
2.2733	392.53743395	17.0
2.2835	393.302087415	12.0
2.2938	394.070246781	17.0
2.304	394.827016723	16.0
2.3142	395.579894465	21.0
2.3245	396.336224117	10.0
2.3347	397.081339743	17.0
2.345	397.829871689	14.0
2.3552	398.567305225	24.0
2.3654	399.300946012	10.0
2.3757	400.037950508	12.0
2.3859	400.76402751	15.0
2.3962	401.493433542	15.0
2.4064	402.212024741	9.0
2.4166	402.926920101	15.0
2.4269	403.645093223	15.0
2.4371	404.352618062	18.0
2.4474	405.063386869	16.0
2.4576	405.763617177	16.0
2.4678	406.460246078	14.0
2.4781	407.160068991	19.0
2.4883	407.849515697	11.0
2.4986	408.542123484	12.0
2.5088	409.224462044	8.0
2.519	409.903291217	24.0
2.5293	410.585232791	20.0
2.5395	411.257063283	18.0
2.5498	411.931974087	8.0
2.56	412.596878055	12.0
2.5702	413.258362305	13.0
2.5805	413.92287943	13.0
2.5907	414.577543824	15.0
2.601	415.235209825	12.0
2.6112	415.883124675	10.0
2.6214	416.527707187	19.0
2.6317	417.17524508	12.0
2.6419	417.813181991	8.0
2.6522	418.454043813	9.0
2.6624	419.08540364	10.0
2.6726	419.713516274	9.0
2.6829	420.344508774	9.0
2.6931	420.96614561	6.0
2.7034	421.590632622	13.0
2.7136	422.205860427	12.0
2.7238	422.817924007	9.0
2.7341	423.432793871	8.0
2.7443	424.038547119	9.0
2.7546	424.647077718	7.0
2.7648	425.246585692	12.0
2.775	425.843010293	9.0
2.7853	426.442169473	10.0
2.7955	427.032444979	12.0
2.8058	427.625426869	11.0
2.816	428.209616676	10.0
2.8262	428.790801892	5.0
2.8365	429.374651816	19.0
2.8467	429.949845054	9.0
2.857	430.527675526	8.0
2.8672	431.096938562	10.0
2.8774	431.663273779	7.0
2.8877	432.232205617	12.0
2.8979	432.792701958	12.0
2.9082	433.355768148	17.0
2.9184	433.910485811	10.0
2.9286	434.462350465	12.0
2.9389	435.016745392	20.0
2.9491	435.56292036	20.0
2.9594	436.111599515	7.0
2.9696	436.652143457	15.0
2.9798	437.189907288	12.0
2.9901	437.730136741	11.0
3.0003	438.262356265	24.0
3.0106	438.79701599	19.0
3.0208	439.323748368	17.0
3.031	439.847771669	12.0
3.0413	440.374197593	11.0
3.0515	440.892818251	12.0
3.0618	441.413816761	16.0
3.072	441.927090477	20.0
3.0822	442.437724336	14.0
3.0925	442.950699428	11.0
3.1027	443.456068689	17.0
3.113	443.963755043	19.0
3.1232	444.463913982	20.0
3.1334	444.961500517	16.0
3.1437	445.461368462	11.0
3.1539	445.953824915	14.0
3.1642	446.448539257	23.0
3.1744	446.935918518	15.0
3.1846	447.420791102	15.0
3.1949	447.907886805	14.0
3.2051	448.387760388	10.0
3.2154	448.869834168	11.0
3.2256	449.344760287	16.0
3.2358	449.817243779	24.0
3.2461	450.291893586	20.0
3.2563	450.759505806	22.0
3.2666	451.229262007	16.0
3.2768	451.692053178	14.0
3.287	452.152464133	15.0
3.2973	452.614986052	18.0
3.3075	453.070650203	21.0
3.3178	453.528403553	14.0
3.328	453.979369839	11.0
3.3382	454.428016726	15.0
3.3485	454.878720639	13.0
3.3587	455.322742009	17.0
3.369	455.768799196	13.0
3.3792	456.208242737	7.0
3.3894	456.645426143	13.0
3.3997	457.084614015	13.0
3.4099	457.517290091	10.0
3.4202	457.951949966	10.0
3.4304	458.380165182	2.0
3.4406	458.806178013	14.0
3.4509	459.234144093	13.0
3.4611	459.655764761	15.0
3.4714	460.079318541	13.0
3.4816	460.49659233	15.0
3.4918	460.911720007	17.0
3.5021	461.328751026	11.0
3.5123	461.739598766	12.0
3.5226	462.152330224	10.0
3.5328	462.558942153	13.0
3.543	462.963462806	8.0
3.5533	463.369838167	14.0
3.5635	463.77018824	14.0
3.5738	464.1723739	8.0
3.584	464.568596393	7.0
3.5942	464.962781044	15.0
3.6045	465.358773013	11.0
3.6147	465.748893648	11.0
3.625	466.140802968	15.0
3.6352	466.526901487	11.0
3.6454	466.911014234	11.0
3.6557	467.29688812	14.0
3.6659	467.677040692	15.0
3.6762	468.058936245	16.0
3.6864	468.435169471	6.0
3.6966	468.809467663	9.0
3.7069	469.185481995	13.0
3.7171	469.5559212	8.0
3.7274	469.928058851	9.0
3.7376	470.294678853	12.0
3.7478	470.659413265	14.0
3.7581	471.025819967	13.0
3.7683	471.386793992	12.0
3.7786	471.749423067	11.0
3.7888	472.106675476	13.0
3.799	472.462090474	16.0
3.8093	472.819135032	9.0
3.8195	473.170885726	7.0
3.8298	473.524249181	16.0
3.84	473.87237335	10.0
3.8502	474.218707056	17.0
3.8605	474.566628685	14.0
3.8707	474.909391715	16.0
3.881	475.253726297	14.0
3.8912	475.592955464	11.0
3.9014	475.930439917	13.0
3.9117	476.26947172	9.0
3.9219	476.603476731	7.0
3.9322	476.93901314	10.0
3.9424	477.269574583	10.0
3.9526	477.598435891	10.0
3.9629	477.928805013	5.0
3.9731	478.254275785	15.0
3.9834	478.581238824	13.0
3.9936	478.903354015	10.0
4.0038	479.223812511	12.0
4.0141	479.545740294	12.0
4.0243	479.862894886	6.0
4.0346	480.181503616	12.0
4.0448	480.495388366	9.0
4.055	480.807658752	11.0
4.0653	481.121360883	13.0
4.0755	481.430411784	9.0
4.0858	481.740879668	6.0
4.096	482.046744276	11.0
4.1062	482.351035768	10.0
4.1165	482.656722423	12.0
4.1267	482.957876691	9.0
4.137	483.260411738	18.0
4.1472	483.558461128	10.0
4.1574	483.854977597	14.0
4.1677	484.15285358	9.0
4.1779	484.446312986	7.0
4.1882	484.741117889	9.0
4.1984	485.031551749	10.0
4.2086	485.320491857	9.0
4.2189	485.610756741	11.0
4.2291	485.896717897	13.0
4.2394	486.183990171	13.0
4.2496	486.467003087	8.0
4.2598	486.748560419	13.0
4.2701	487.031408677	10.0
4.2803	487.310063173	11.0
4.2906	487.589995286	13.0
4.3008	487.865776873	11.0
4.311	488.140140067	15.0
4.3213	488.415761204	8.0
4.3315	488.687295733	8.0
4.3418	488.960075235	13.0
4.352	489.228810262	10.0
4.3622	489.496163138	9.0
4.3725	489.764741815	8.0
4.3827	490.029338302	8.0
4.393	490.295147951	9.0
4.4032	490.557016467	4.0
4.4134	490.817538147	5.0
4.4237	491.079254307	11.0
4.4339	491.337090028	7.0
4.4442	491.596107913	13.0
4.4544	491.851285365	15.0
4.4646	492.105150395	11.0
4.4749	492.360179384	11.0
4.4851	492.611427083	14.0
4.4954	492.863826742	8.0
4.5056	493.112484095	11.0
4.5158	493.35986256	12.0
4.5261	493.608375244	9.0
4.5363	493.853203255	9.0
4.5466	494.09915379	8.0
4.5568	494.341457642	13.0
4.567	494.582515282	6.0
4.5773	494.82467816	7.0
4.5875	495.063250513	12.0
4.5978	495.302916709	12.0
4.608	495.539029398	11.0
4.6182	495.773927718	12.0
4.6285	496.009903036	7.0
4.6387	496.242379571	5.0
4.649	496.475922	14.0
4.6592	496.706001718	8.0
4.6694	496.934898096	6.0
4.6797	497.164843954	7.0
4.6899	497.391380427	11.0
4.7002	497.618955558	7.0
4.7104	497.843156456	9.0
4.7206	498.066204249	12.0
4.7309	498.290274706	12.0
4.7411	498.511022893	8.0
4.7514	498.732783199	6.0
4.7616	498.951255487	15.0
4.7718	499.168604134	8.0
4.7821	499.386949315	13.0
4.7923	499.602057112	10.0
4.8026	499.818151169	6.0
4.8128	500.031041221	11.0
4.823	500.242836342	11.0
4.8333	500.455602534	11.0
4.8435	500.665214062	11.0
4.8538	500.875786649	5.0
4.864	501.083237097	8.0
4.8742	501.289620591	13.0
4.8845	501.496950344	11.0
4.8947	501.701206039	11.0
4.905	501.906398237	14.0
4.9152	502.10854807	4.0
4.9254	502.309658212	13.0
4.9357	502.511690434	5.0
4.9459	502.710727144	10.0
4.9562	502.910676428	11.0
4.9664	503.107661083	7.0
4.9766	503.303632612	7.0
4.9869	503.500502662	7.0
4.9971	503.694453738	5.0
5.0074	503.889294071	4.0
5.0176	504.081245526	9.0
5.0278	504.272209741	7.0
5.0381	504.464049517	11.0
5.0483	504.653044904	4.0
5.0586	504.842906827	13.0
5.0688	505.029953685	8.0
5.079	505.216038528	4.0
5.0893	505.402976562	4.0
5.0995	505.587142884	9.0
5.1098	505.7721536	1.0
5.12	505.95442118	5.0
5.1302	506.135751326	10.0
5.1405	506.317912862	7.0
5.1507	506.497373507	6.0
5.161	506.677656971	7.0
5.1712	506.85526739	3.0
5.1814	507.031964327	3.0
5.1917	507.209471411	4.0
5.2019	507.384346615	4.0
5.2122	507.560023614	5.0
5.2224	507.733095867	0.0
5.2326	507.90527798	3.0
5.2429	508.078249539	3.0
5.2531	508.248656466	3.0
5.2634	508.419844701	2.0
5.2736	508.588494744	4.0
5.2838	508.756277391	2.0
5.2941	508.924829314	2.0
5.3043	509.090882134	3.0
5.3146	509.257696298	1.0
5.3248	509.422037125	4.0
5.335	509.585532718	3.0
5.3453	509.749777931	2.0
5.3555	509.911587897	2.0
5.3658	510.074139753	2.0
5.376	510.234281469	4.0
5.3862	510.393599548	0.0
5.3965	510.553648093	0.0
5.4067	510.711323614	1.0
5.417	510.86972207	2.0
5.4272	511.025771968	3.0
5.4374	511.181019274	2.0
5.4477	511.336978381	0.0
5.4579	511.490625098	4.0
5.4682	511.644976278	1.0
5.4784	511.797038908	3.0
5.4886	511.948319454	3.0
5.4989	512.100293614	2.0
5.5091	512.250014467	1.0
5.5194	512.400421784	3.0
5.5296	512.548599027	0.0
5.5398	512.696014168	0.0
5.5501	512.8441052	2.0
5.5603	512.990000501	0.0
5.5706	513.136564726	1.0
5.5808	513.280955857	3.0
5.591	513.424604359	1.0
5.6013	513.568911483	0.0
5.6115	513.711078979	2.0
5.6218	513.853898307	2.0
5.632	513.994600066	2.0
5.6422	514.134578172	4.0
5.6525	514.275198071	2.0
5.6627	514.413733012	1.0
5.673	514.55290313	1.0
5.6832	514.690009785	3.0
5.6934	514.826411278	0.0
5.7037	514.963438165	1.0
5.7139	515.098433367	1.0
5.7242	515.234047517	1.0
5.7344	515.367650929	0.0
5.7446	515.500567195	3.0
5.7549	515.634092875	0.0
5.7651	515.765638784	0.0
5.7754	515.897787825	0.0
5.7856	516.027977504	0.0
5.7958	516.157497596	3.0
5.8061	516.287611531	1.0
5.8163	516.415796279	1.0
5.8266	516.544568749	1.0
5.8368	516.671431921	3.0
5.847	516.797642615	2.0
5.8573	516.924431978	3.0
5.8675	517.049341448	0.0
5.8778	517.174823622	0.0
5.888	517.298445284	0.0
5.8982	517.421431139	0.0
5.9085	517.544980877	0.0
5.9187	517.666698756	1.0
5.929	517.788974706	2.0
5.9392	517.909437682	2.0
5.9494	518.029281096	1.0
5.9597	518.149673987	0.0
5.9699	518.268281824	3.0
5.9802	518.387433472	2.0
5.9904	518.50481847	0.0
6.0006	518.621599737	0.0
6.0109	518.738916441	1.0
6.0211	518.854493701	0.0
6.0314	518.970600878	2.0
6.0416	519.084986545	0.0
6.0518	519.198783906	1.0
6.0621	519.313103023	0.0
6.0723	519.425727142	2.0
6.0826	519.538867637	1.0
6.0928	519.650330609	0.0
6.103	519.761220308	0.0
6.1133	519.87261843	0.0
6.1235	519.982364864	1.0
6.1338	520.09261448	0.0
6.144	520.201229435	2.0
6.1542	520.309285765	4.0
6.1645	520.417837528	2.0
6.1747	520.524779805	1.0
6.185	520.632212407	0.0
6.1952	520.738052116	0.0
6.2054	520.843347474	0.0
6.2157	520.949125605	2.0
6.2259	521.053335375	2.0
6.2362	521.158022942	0.0
6.2464	521.261158316	0.0
6.2566	521.363763247	1.0
6.2669	521.466838617	0.0
6.2771	521.568385698	1.0
6.2874	521.670398368	1.0
6.2976	521.770898507	1.0
6.3078	521.870881755	0.0
6.3181	521.971323422	2.0
6.3283	522.07027585	0.0
6.3386	522.169681971	0.0
6.3488	522.267614207	2.0
6.359	522.36504276	2.0
6.3693	522.462918018	0.0
6.3795	522.55934209	1.0
6.3898	522.656208261	2.0
6.4	522.751638207	1.0
6.4102	522.846577341	0.0
6.4205	522.941951766	1.0
6.4307	523.035912083	1.0
6.441	523.130303205	2.0
6.4512	523.223294798	0.0
6.4614	523.315808119	4.0
6.4717	523.40874561	0.0
6.4819	523.500305126	2.0
6.4922	523.592284437	1.0
6.5024	523.682899981	2.0
6.5126	523.773049473	0.0
6.5229	523.863612296	0.0
6.5331	523.952832353	1.0
6.5434	524.042461479	2.0
6.5536	524.130761684	3.0
6.5638	524.218607745	2.0
6.5741	524.306856576	1.0
6.5843	524.393796951	0.0
6.5946	524.481135943	0.0
6.6048	524.567179968	2.0
6.615	524.652781454	1.0
6.6253	524.738775419	2.0
6.6355	524.823494359	0.0
6.6458	524.908601732	1.0
6.656	524.992447227	1.0
6.6662	525.075861489	1.0
6.6765	525.159658202	1.0
6.6867	525.242212469	0.0
6.697	525.325145243	0.0
6.7072	525.406848382	1.0
6.7174	525.488131307	2.0
6.7277	525.56978691	0.0
6.7379	525.650231814	0.0
6.7482	525.731045554	1.0
6.7584	525.810661076	0.0
6.7686	525.889867122	2.0
6.7789	525.969436324	0.0
6.7891	526.047825762	0.0
6.7994	526.126574611	0.0
6.8096	526.204155858	1.0
6.8198	526.281338092	0.0
6.8301	526.358874203	0.0
6.8403	526.435260693	0.0
6.8506	526.511997412	1.0
6.8608	526.587596363	1.0
6.871	526.662806496	0.0
6.8813	526.738361463	0.0
6.8915	526.812796185	1.0
6.9018	526.887572186	0.0
6.912	526.96123949	1.0
6.9222	527.034527911	0.0
6.9325	527.108152356	1.0
6.9427	527.180685178	0.0
6.953	527.25355056	0.0
6.9632	527.325335574	1.0
6.9734	527.396751385	1.0
6.9837	527.468494635	0.0
6.9939	527.539174154	0.0
7.0042	527.610177735	1.0
7.0144	527.680128554	0.0
7.0246	527.749719603	0.0
7.0349	527.819629724	1.0
7.0451	527.888503294	0.0
7.0554	527.957692647	2.0
7.0656	528.025856135	2.0
7.0758	528.093669047	0.0
7.0861	528.161792878	0.0
7.0963	528.228906644	0.0
7.1066	528.296328123	1.0
7.1168	528.36274995	1.0
7.127	528.428830159	1.0
7.1373	528.495213342	2.0
7.1475	528.560612268	0.0
7.1578	528.626311045	2.0
7.168	528.691035713	0.0
7.1782	528.75542749	0.0
7.1885	528.820114501	0.0
7.1987	528.883842404	1.0
7.209	528.947862497	1.0
7.2192	529.010933369	0.0
7.2294	529.073679857	2.0
7.2397	529.136714035	0.0
7.2499	529.198813612	0.0
7.2602	529.261197912	0.0
7.2704	529.322657246	0.0
7.2806	529.383800484	0.0
7.2909	529.445224061	0.0
7.3011	529.505736916	1.0
7.3114	529.56652722	0.0
7.3216	529.626416192	1.0
7.3318	529.685997145	0.0
7.3421	529.745851274	0.0
7.3523	529.804817951	1.0
7.3626	529.864054988	0.0
7.3728	529.922413723	1.0
7.383	529.980472309	0.0
7.3933	530.038797091	2.0
7.4035	530.096257097	3.0
7.4138	530.153980555	2.0
7.424	530.210848152	1.0
7.4342	530.26742327	1.0
7.4445	530.324257781	1.0
7.4547	530.380249613	0.0
7.465	530.436498165	2.0
7.4752	530.491912725	2.0
7.4854	530.547042279	0.0
7.4957	530.602424599	1.0
7.5059	530.65698577	1.0
7.5162	530.711797102	0.0
7.5264	530.765795752	1.0
7.5366	530.819516677	1.0
7.5469	530.873483911	0.0
7.5571	530.926650977	0.0
7.5674	530.980061812	1.0
7.5776	531.03268073	3.0
7.5878	531.085029019	1.0
7.5981	531.137617323	1.0
7.6083	531.189425905	0.0
7.6186	531.241472027	1.0
7.6288	531.292746467	0.0
7.639	531.343757193	1.0
7.6493	531.3950018	1.0
7.6595	531.445486609	0.0
7.6698	531.496202889	0.0
7.68	531.546167203	0.0
7.6902	531.595874542	1.0
7.7005	531.645809787	0.0
7.7107	531.695004647	0.0
7.721	531.744425063	0.0
7.7312	531.793112727	0.0
7.7414	531.841549982	1.0
7.7517	531.89020932	0.0
7.7619	531.93814719	0.0
7.7722	531.986304854	1.0
7.7824	532.033748488	0.0
7.7926	532.080948112	0.0
7.8029	532.128364143	1.0
7.8131	532.175077142	0.0
7.8234	532.222004318	0.0
7.8336	532.268235709	0.0
7.8438	532.314229324	1.0
7.8541	532.360433817	0.0
7.8643	532.405953241	0.0
7.8746	532.45168137	1.0
7.8848	532.496731492	1.0
7.895	532.541549913	0.0
7.9053	532.586573825	0.0
7.9155	532.630930171	0.0
7.9258	532.67548989	1.0
7.936	532.719388925	1.0
7.9462	532.763062181	1.0
7.9565	532.806935676	0.0
7.9667	532.850158663	1.0
7.977	532.893579826	0.0
7.9872	532.936357187	0.0
7.9974	532.978914537	1.0
8.0077	533.02166701	1.0
8.0179	533.063785596	1.0
8.0282	533.106097295	0.0
8.0384	533.147781642	1.0
8.0486	533.189251599	1.0
8.0589	533.230911693	0.0
8.0691	533.271954098	0.0
8.0794	533.31318468	0.0
8.0896	533.353803941	0.0
8.0998	533.394214289	3.0
8.1101	533.434809917	1.0
