TL-DOS Lehrstuhlversuch
detector=R1408301
job_number=2015-10-26-009
irradiation_dose [mSv]=10.0

[BEGIN DATA]
time [sec] 	 temperature [K] 	 photoncount 
0.0	215.4914278	0.0
0.0102	216.413886522	0.0
0.0205	217.342993122	1.0
0.0307	218.260712788	1.0
0.041	219.185046179	1.0
0.0512	220.098051135	0.0
0.0614	221.008719267	1.0
0.0717	221.925950306	1.0
0.0819	222.831939955	0.0
0.0922	223.744458794	1.0
0.1024	224.645793995	0.0
0.1126	225.544822241	0.0
0.1229	226.450329509	2.0
0.1331	227.344739071	1.0
0.1434	228.245594369	0.0
0.1536	229.135408974	0.0
0.1638	230.022946111	0.0
0.1741	230.916879458	1.0
0.1843	231.799856945	1.0
0.1946	232.689197782	1.0
0.2048	233.567639045	1.0
0.215	234.443831949	0.0
0.2253	235.326339308	0.0
0.2355	236.198030843	0.0
0.2458	237.076004392	0.0
0.256	237.943217683	1.0
0.2662	238.808211353	2.0
0.2765	239.679438769	0.0
0.2867	240.539988605	0.0
0.297	241.40674016	0.0
0.3072	242.262868991	0.0
0.3174	243.116806573	0.0
0.3277	243.976898221	0.0
0.3379	244.826448768	1.0
0.3482	245.682121766	0.0
0.3584	246.527307816	1.0
0.3686	247.370330623	0.0
0.3789	248.219428839	0.0
0.3891	249.058120686	0.0
0.3994	249.902856729	0.0
0.4096	250.737239865	0.0
0.4198	251.569487409	0.0
0.4301	252.407732706	0.0
0.4403	253.235704646	0.0
0.4506	254.069643527	1.0
0.4608	254.893361829	1.0
0.471	255.714971835	0.0
0.4813	256.542502933	0.0
0.4915	257.359891985	0.0
0.5018	258.18317171	0.0
0.512	258.996361492	0.0
0.5222	259.807469926	0.0
0.5325	260.62442377	0.0
0.5427	261.431365201	2.0
0.553	262.244122012	2.0
0.5632	263.046917847	0.0
0.5734	263.847658937	0.0
0.5837	264.654170723	0.0
0.5939	265.450798071	0.0
0.6042	266.253166469	0.0
0.6144	267.045701209	0.0
0.6246	267.836207467	0.0
0.6349	268.632410662	0.0
0.6451	269.418855758	0.0
0.6554	270.210968525	1.0
0.6656	270.993373324	0.0
0.6758	271.773775569	0.0
0.6861	272.559801934	0.0
0.6963	273.336194926	0.0
0.7066	274.118183145	0.0
0.7168	274.890587481	0.0
0.727	275.661014859	0.0
0.7373	276.436994472	0.0
0.7475	277.203463842	0.0
0.7578	277.975456923	0.0
0.768	278.737988619	0.0
0.7782	279.498568626	0.0
0.7885	280.264629901	1.0
0.7987	281.02130249	2.0
0.809	281.783428187	0.0
0.8192	282.536213433	0.0
0.8294	283.287071935	0.0
0.8397	284.043341645	0.0
0.8499	284.790342672	0.0
0.8602	285.542727108	0.0
0.8704	286.285890479	0.0
0.8806	287.027151734	0.0
0.8909	287.773755031	0.0
0.9011	288.511208117	1.0
0.9114	289.253975801	0.0
0.9216	289.987640281	1.0
0.9318	290.719426957	0.0
0.9421	291.456487396	0.0
0.9523	292.184514578	0.0
0.9626	292.917788429	0.0
0.9728	293.64207543	0.0
0.983	294.364508629	0.0
0.9933	295.092148183	0.0
1.0035	295.81086994	0.0
1.0138	296.534771305	1.0
1.024	297.249800688	0.0
1.0342	297.962999963	0.0
1.0445	298.681339047	1.0
1.0547	299.390874319	0.0
1.065	300.105522994	0.0
1.0752	300.811413086	0.0
1.0854	301.515496463	0.0
1.0957	302.224653952	0.0
1.1059	302.925120158	0.0
1.1162	303.630634409	0.0
1.1264	304.327502026	6.0
1.1366	305.022586021	0.0
1.1469	305.722679273	1.0
1.1571	306.41419233	1.0
1.1674	307.11068891	0.0
1.1776	307.798649375	1.0
1.1878	308.484849014	2.0
1.1981	309.175993885	3.0
1.2083	309.85866823	1.0
1.2186	310.5462624	2.0
1.2288	311.225429562	1.0
1.239	311.902858404	1.0
1.2493	312.585169268	3.0
1.2595	313.259117875	0.0
1.2698	313.937923424	1.0
1.28	314.608409674	2.0
1.2902	315.277179825	1.0
1.3005	315.950769597	2.0
1.3107	316.616103996	2.0
1.321	317.286233256	3.0
1.3312	317.948149553	1.0
1.3414	318.608371684	3.0
1.3517	319.273351835	4.0
1.3619	319.930182129	5.0
1.3722	320.591745998	1.0
1.3824	321.245201881	3.0
1.3926	321.896985251	2.0
1.4029	322.553465825	5.0
1.4131	323.201900712	1.0
1.4234	323.855008671	3.0
1.4336	324.500112277	0.0
1.4438	325.143564748	2.0
1.4541	325.791654385	3.0
1.4643	326.431801172	0.0
1.4746	327.076561302	4.0
1.4848	327.713419387	2.0
1.495	328.348647443	6.0
1.5053	328.988453393	2.0
1.5155	329.620418016	3.0
1.5258	330.256937016	4.0
1.536	330.885654972	4.0
1.5462	331.512763734	7.0
1.5565	332.144391877	5.0
1.5667	332.768278918	7.0
1.577	333.396662123	9.0
1.5872	334.017343996	10.0
1.5974	334.636437242	7.0
1.6077	335.259992104	8.0
1.6179	335.875904809	6.0
1.6282	336.496256209	8.0
1.6384	337.109004713	8.0
1.6486	337.720184895	6.0
1.6589	338.335769666	10.0
1.6691	338.94380996	5.0
1.6794	339.556232215	11.0
1.6896	340.161148751	13.0
1.6998	340.764517013	12.0
1.7101	341.372233564	10.0
1.7203	341.97250207	13.0
1.7306	342.577096528	17.0
1.7408	343.174281203	14.0
1.751	343.769937392	18.0
1.7613	344.369886294	10.0
1.7715	344.962482348	14.0
1.7818	345.559349061	13.0
1.792	346.148900702	23.0
1.8022	346.736943393	19.0
1.8125	347.329223928	19.0
1.8227	347.914245598	36.0
1.833	348.50348334	19.0
1.8432	349.085499509	20.0
1.8534	349.666026015	22.0
1.8637	350.250736198	21.0
1.8739	350.828280297	16.0
1.8842	351.409986579	35.0
1.8944	351.984563593	24.0
1.9046	352.557669984	26.0
1.9149	353.134906577	27.0
1.9251	353.705068681	27.0
1.9354	354.279339769	32.0
1.9456	354.846572711	26.0
1.9558	355.412353829	33.0
1.9661	355.982212358	39.0
1.9763	356.545086821	43.0
1.9866	357.112017748	48.0
1.9968	357.67200049	43.0
2.007	358.230549963	45.0
2.0173	358.793124732	60.0
2.0275	359.348804703	57.0
2.0378	359.90848929	72.0
2.048	360.4613145	67.0
2.0582	361.012724762	50.0
2.0685	361.568108869	71.0
2.0787	362.116686306	71.0
2.089	362.669217173	79.0
2.0992	363.214976338	72.0
2.1094	363.75933864	90.0
2.1197	364.307623994	79.0
2.1299	364.849189679	108.0
2.1402	365.394658262	112.0
2.1504	365.933441698	106.0
2.1606	366.470846124	142.0
2.1709	367.01212346	139.0
2.1811	367.546767016	128.0
2.1914	368.085263584	151.0
2.2016	368.617160451	152.0
2.2118	369.147695936	166.0
2.2221	369.682054828	145.0
2.2323	370.20986473	153.0
2.2426	370.741478397	163.0
2.2528	371.266576718	166.0
2.263	371.790331058	178.0
2.2733	372.317859935	206.0
2.2835	372.83892353	192.0
2.2938	373.363742271	226.0
2.304	373.882128944	213.0
2.3142	374.399188813	233.0
2.3245	374.919974975	252.0
2.3347	375.434378491	231.0
2.345	375.952489156	250.0
2.3552	376.464249967	276.0
2.3654	376.974700932	269.0
2.3757	377.488830562	290.0
2.3859	377.996659127	314.0
2.3962	378.508147458	366.0
2.4064	379.013367095	353.0
2.4166	379.51729363	314.0
2.4269	380.024851809	356.0
2.4371	380.526189463	378.0
2.4474	381.031140103	407.0
2.4576	381.529902176	428.0
2.4678	382.027387673	442.0
2.4781	382.528458396	448.0
2.4883	383.023388102	482.0
2.4986	383.521884616	482.0
2.5088	384.014271661	535.0
2.519	384.505398448	550.0
2.5293	385.000064636	574.0
2.5395	385.4886683	591.0
2.5498	385.980793181	606.0
2.56	386.466886683	605.0
2.5702	386.951736035	644.0
2.5805	387.440079549	701.0
2.5907	387.922438027	681.0
2.601	388.408272716	714.0
2.6112	388.888153117	811.0
2.6214	389.366805271	786.0
2.6317	389.848906924	736.0
2.6419	390.325100042	838.0
2.6522	390.804724938	872.0
2.6624	391.278471652	833.0
2.6726	391.751005818	913.0
2.6829	392.226945393	879.0
2.6931	392.697051953	882.0
2.7034	393.170546428	969.0
2.7136	393.638237854	1018.0
2.7238	394.10473223	1027.0
2.7341	394.574588489	1112.0
2.7443	395.038686288	1089.0
2.7546	395.506128699	1080.0
2.7648	395.967842234	1088.0
2.775	396.428374019	1172.0
2.7853	396.892224717	1158.0
2.7955	397.350390558	1192.0
2.8058	397.81185826	1195.0
2.816	398.267670311	1212.0
2.8262	398.722315718	1277.0
2.8365	399.180237615	1271.0
2.8467	399.632547318	1284.0
2.857	400.088116679	1344.0
2.8672	400.538102678	1338.0
2.8774	400.986936943	1321.0
2.8877	401.439005821	1344.0
2.8979	401.885534237	1362.0
2.9082	402.335280647	1446.0
2.9184	402.77951506	1374.0
2.9286	403.222612462	1432.0
2.9389	403.66890313	1400.0
2.9491	404.109724155	1443.0
2.9594	404.553722042	1407.0
2.9696	404.992278384	1373.0
2.9798	405.429712248	1383.0
2.9901	405.870298563	1426.0
3.0003	406.305485146	1440.0
3.0106	406.743807985	1367.0
3.0208	407.176758832	1364.0
3.031	407.608601548	1338.0
3.0413	408.043556421	1354.0
3.0515	408.47318058	1339.0
3.0618	408.905900909	1364.0
3.072	409.333317908	1309.0
3.0822	409.75964094	1357.0
3.0925	410.189036351	1269.0
3.1027	410.613169183	1268.0
3.113	411.040358611	1202.0
3.1232	411.462312495	1229.0
3.1334	411.883186394	1092.0
3.1437	412.307093402	1138.0
3.1539	412.725805096	1153.0
3.1642	413.147534316	1080.0
3.1744	413.564094913	1061.0
3.1846	413.979589328	1020.0
3.1949	414.398078085	972.0
3.2051	414.811437931	951.0
3.2154	415.227776736	859.0
3.2256	415.63901298	900.0
3.2358	416.04919667	923.0
3.2461	416.462336429	817.0
3.2563	416.870412835	865.0
3.2666	417.281430122	860.0
3.2768	417.687410068	796.0
3.287	418.092350914	785.0
3.2973	418.500210045	730.0
3.3075	418.90307054	761.0
3.3178	419.308834328	754.0
3.328	419.709625161	716.0
3.3382	420.109390175	667.0
3.3485	420.512036173	712.0
3.3587	420.909747427	731.0
3.369	421.310324864	721.0
3.3792	421.705992908	706.0
3.3894	422.100648246	697.0
3.3997	422.498147744	679.0
3.4099	422.890775572	736.0
3.4202	423.286232949	679.0
3.4304	423.676843684	734.0
3.4406	424.066454655	716.0
3.4509	424.458873434	733.0
3.4611	424.846482812	701.0
3.4714	425.236885571	762.0
3.4816	425.622503637	730.0
3.4918	426.007134719	736.0
3.5021	426.394537719	739.0
3.5123	426.777192789	801.0
3.5226	427.162605538	842.0
3.5328	427.54329475	786.0
3.543	427.923009593	844.0
3.5533	428.305460924	860.0
3.5635	428.683225013	970.0
3.5738	429.063711532	829.0
3.584	429.439534888	904.0
3.5942	429.81439633	912.0
3.6045	430.191959284	919.0
3.6147	430.564894905	892.0
3.625	430.94051816	970.0
3.6352	431.311537856	966.0
3.6454	431.681607931	985.0
3.6557	432.054344989	1049.0
3.6659	432.422513859	1048.0
3.6762	432.793336011	1058.0
3.6864	433.159613444	1060.0
3.6966	433.524953395	1059.0
3.7069	433.89292624	1057.0
3.7171	434.256389287	1103.0
3.7274	434.622471701	1087.0
3.7376	434.984067486	1233.0
3.7478	435.344737772	1179.0
3.7581	435.708007298	1193.0
3.7683	436.066824669	1219.0
3.7786	436.428227928	1166.0
3.7888	436.785201905	1204.0
3.799	437.141262211	1275.0
3.8093	437.499888536	1244.0
3.8195	437.854119612	1270.0
3.8298	438.210903523	1278.0
3.84	438.563314765	1363.0
3.8502	438.914824016	1302.0
3.8605	439.268866487	1328.0
3.8707	439.618569887	1351.0
3.881	439.970793494	1304.0
3.8912	440.318700322	1332.0
3.9014	440.665716687	1346.0
3.9117	441.015233893	1395.0
3.9219	441.36046749	1366.0
3.9322	441.70818908	1374.0
3.9424	442.051649068	1411.0
3.9526	442.394229974	1347.0
3.9629	442.739279757	1378.0
3.9731	443.080100682	1407.0
3.9834	443.423377799	1386.0
3.9936	443.762447784	1390.0
4.0038	444.100649925	1436.0
4.0141	444.441289384	1368.0
4.0243	444.777754039	1441.0
4.0346	445.116643491	1458.0
4.0448	445.451379586	1406.0
4.055	445.785258928	1415.0
4.0653	446.121544437	1416.0
4.0755	446.453708501	1378.0
4.0858	446.788266371	1441.0
4.096	447.118723969	1333.0
4.1062	447.448335766	1331.0
4.1165	447.780322975	1288.0
4.1267	448.108241418	1386.0
4.137	448.438523069	1389.0
4.1472	448.764756858	1359.0
4.1574	449.090155656	1305.0
4.1677	449.417899504	1315.0
4.1779	449.741626592	1320.0
4.1882	450.067686683	1302.0
4.1984	450.38975065	1298.0
4.2086	450.710990298	1261.0
4.2189	451.034545023	1229.0
4.2291	451.354134329	1275.0
4.2394	451.676026817	1258.0
4.2496	451.993974259	1252.0
4.2598	452.311107919	1229.0
4.2701	452.630527064	1208.0
4.2803	452.946031476	1195.0
4.2906	453.263809631	1217.0
4.3008	453.577693165	1183.0
4.311	453.890773318	1203.0
4.3213	454.206109743	1109.0
4.3315	454.517581472	1176.0
4.3418	454.831297883	1242.0
4.352	455.141169452	1178.0
4.3622	455.450247908	1127.0
4.3725	455.761553799	1166.0
4.3827	456.06904439	1134.0
4.393	456.378750971	1132.0
4.4032	456.684661855	1120.0
4.4134	456.989789763	1120.0
4.4237	457.297116635	1195.0
4.4339	457.600676974	1084.0
4.4442	457.90642498	1140.0
4.4544	458.208425802	1069.0
4.4646	458.509653658	1074.0
4.4749	458.81305237	1060.0
4.4851	459.112732692	1028.0
4.4954	459.414572718	1046.0
4.5056	459.712713457	1059.0
4.5158	460.010091108	1123.0
4.5261	460.30961187	1037.0
4.5363	460.605461768	1027.0
4.5466	460.903443766	1051.0
4.5568	461.197773759	1063.0
4.567	461.491350419	1057.0
4.5773	461.787042796	1077.0
4.5875	462.07911123	1034.0
4.5978	462.373284512	1098.0
4.608	462.663852468	1064.0
4.6182	462.953676719	1054.0
4.6285	463.245589645	1070.0
4.6387	463.533924948	1067.0
4.649	463.824338195	1085.0
4.6592	464.111192198	1084.0
4.6694	464.397312003	1098.0
4.6797	464.685493786	1066.0
4.6899	464.970143674	1080.0
4.7002	465.256844946	1081.0
4.7104	465.540032468	1073.0
4.7206	465.822495176	1084.0
4.7309	466.106993506	1074.0
4.7411	466.388005084	1053.0
4.7514	466.671041827	1042.0
4.7616	466.950609731	1048.0
4.7718	467.229462086	1138.0
4.7821	467.510324043	1111.0
4.7923	467.787743816	1080.0
4.8026	468.067162869	1093.0
4.8128	468.34315742	1053.0
4.823	468.618445567	1084.0
4.8333	468.895717632	1035.0
4.8435	469.169591509	1052.0
4.8538	469.445439111	1101.0
4.864	469.717905983	1115.0
4.8742	469.98967548	1049.0
4.8845	470.263403536	1106.0
4.8947	470.53377684	1087.0
4.905	470.806098641	1028.0
4.9152	471.075082923	1002.0
4.9254	471.343378744	1084.0
4.9357	471.613608091	1110.0
4.9459	471.880525564	991.0
4.9562	472.14936663	1011.0
4.9664	472.414912836	1043.0
4.9766	472.67977938	1094.0
4.9869	472.946554737	1102.0
4.9971	473.210060551	1152.0
5.0074	473.475465371	1040.0
5.0176	473.737617446	1033.0
5.0278	473.999098545	1047.0
5.0381	474.26246406	1024.0
5.0483	474.522601822	1010.0
5.0586	474.784614317	1065.0
5.0688	475.043415643	1033.0
5.079	475.30155457	1037.0
5.0893	475.561553825	968.0
5.0995	475.818366585	969.0
5.1098	476.077030115	989.0
5.12	476.33252352	1015.0
5.1302	476.587362993	984.0
5.1405	476.844039016	1059.0
5.1507	477.097569272	1028.0
5.161	477.352926643	1047.0
5.1712	477.605154408	1034.0
5.1814	477.856736599	958.0
5.1917	478.110131867	1028.0
5.2019	478.360421575	1057.0
5.2122	478.612515045	993.0
5.2224	478.86151891	1016.0
5.2326	479.109885454	997.0
5.2429	479.360041899	971.0
5.2531	479.60713248	985.0
5.2634	479.856003767	1044.0
5.2736	480.10182494	978.0
5.2838	480.347016937	1038.0
5.2941	480.593975958	933.0
5.3043	480.837908301	942.0
5.3146	481.08359859	976.0
5.3248	481.326277751	944.0
5.335	481.568335777	941.0
5.3453	481.812138242	918.0
5.3555	482.052952715	1001.0
5.3658	482.295502665	979.0
5.376	482.535079974	968.0
5.3862	482.774044087	963.0
5.3965	483.014730342	925.0
5.4067	483.252466798	966.0
5.417	483.491916547	923.0
5.4272	483.72843165	973.0
5.4374	483.964341396	908.0
5.4477	484.201951272	907.0
5.4579	484.436649051	930.0
5.4682	484.673038226	940.0
5.4784	484.906530264	916.0
5.4886	485.139424683	911.0
5.4989	485.373997501	881.0
5.5091	485.605695444	904.0
5.5194	485.839063163	936.0
5.5296	486.069570777	939.0
5.5398	486.299488409	928.0
5.5501	486.531062988	908.0
5.5603	486.759799437	885.0
5.5706	486.99018432	964.0
5.5808	487.217745655	838.0
5.591	487.444724549	896.0
5.6013	487.673339211	929.0
5.6115	487.89915202	879.0
5.6218	488.126592192	873.0
5.632	488.351244907	881.0
5.6422	488.575322625	810.0
5.6525	488.801015203	838.0
5.6627	489.02394174	818.0
5.673	489.248474841	850.0
5.6832	489.470256112	874.0
5.6934	489.691469736	837.0
5.7037	489.91427758	879.0
5.7139	490.134354737	823.0
5.7242	490.356017923	892.0
5.7344	490.574964453	924.0
5.7446	490.793350591	859.0
5.7549	491.013310571	891.0
5.7651	491.230574769	891.0
5.7754	491.449404723	917.0
5.7856	491.665552743	870.0
5.7958	491.881147536	907.0
5.8061	492.098296054	839.0
5.8163	492.312783246	899.0
5.8266	492.528816181	880.0
5.8368	492.742201463	950.0
5.847	492.955040587	854.0
5.8573	493.169413578	851.0
5.8675	493.38115926	865.0
5.8778	493.594430927	894.0
5.888	493.805088782	909.0
5.8982	494.015207461	880.0
5.9085	494.226840401	920.0
5.9187	494.435879612	860.0
5.929	494.646425305	835.0
5.9392	494.854390595	908.0
5.9494	495.0618236	895.0
5.9597	495.270751511	853.0
5.9699	495.477118847	830.0
5.9802	495.684973408	863.0
5.9904	495.890280548	895.0
6.0006	496.095062207	895.0
6.0109	496.301319664	888.0
6.0211	496.505049274	877.0
6.0314	496.710247101	884.0
6.0416	496.912930067	886.0
6.0518	497.115094268	867.0
6.0621	497.318715405	931.0
6.0723	497.519841004	967.0
6.0826	497.722416054	891.0
6.0928	497.922508387	889.0
6.103	498.122088586	946.0
6.1133	498.323107099	924.0
6.1235	498.521661971	868.0
6.1338	498.721647768	877.0
6.144	498.919182581	906.0
6.1542	499.116211806	869.0
6.1645	499.31466096	923.0
6.1747	499.510677964	927.0
6.185	499.708107602	937.0
6.1952	499.903117585	907.0
6.2054	500.097628441	882.0
6.2157	500.293541079	889.0
6.2259	500.487052652	866.0
6.2362	500.681958804	898.0
6.2464	500.874476227	839.0
6.2566	501.066500905	837.0
6.2669	501.259909446	891.0
6.2771	501.450947612	846.0
6.2874	501.643362532	854.0
6.2976	501.833419256	898.0
6.3078	502.022989532	921.0
6.3181	502.213925983	825.0
6.3283	502.402522357	845.0
6.3386	502.592477887	861.0
6.3488	502.780105363	935.0
6.359	502.967252609	876.0
6.3693	503.155748567	836.0
6.3795	503.341934359	820.0
6.3898	503.529461935	797.0
6.4	503.714691213	777.0
6.4102	503.899446399	816.0
6.4205	504.085533059	783.0
6.4307	504.26933908	792.0
6.441	504.454469735	777.0
6.4512	504.637331468	778.0
6.4614	504.819725168	800.0
6.4717	505.003433325	808.0
6.4819	505.184889992	770.0
6.4922	505.367654363	781.0
6.5024	505.548178812	837.0
6.5126	505.728241211	779.0
6.5229	505.909601265	727.0
6.5331	506.088738608	745.0
6.5434	506.26916694	719.0
6.5536	506.44738398	738.0
6.5638	506.625144875	691.0
6.5741	506.80418684	703.0
6.5843	506.981034503	704.0
6.5946	507.159156654	685.0
6.6048	507.335095777	683.0
6.615	507.510584587	713.0
6.6253	507.68733809	624.0
6.6355	507.86192534	601.0
6.6458	508.037770787	664.0
6.656	508.211461109	653.0
6.6662	508.384706874	599.0
6.6765	508.559201167	628.0
6.6867	508.731556895	622.0
6.697	508.905154739	587.0
6.7072	509.076625004	571.0
6.7174	509.247656393	611.0
6.7277	509.419920352	580.0
6.7379	509.590073082	561.0
6.7482	509.76145205	553.0
6.7584	509.930730633	562.0
6.7686	510.09957595	542.0
6.7789	510.269638084	511.0
6.7891	510.437615972	529.0
6.7994	510.606804426	532.0
6.8096	510.773919341	524.0
6.8198	510.940606528	462.0
6.8301	511.108494979	473.0
6.8403	511.274325824	511.0
6.8506	511.441351762	473.0
6.8608	511.606330665	476.0
6.871	511.770887306	468.0
6.8813	511.936629857	419.0
6.8915	512.100341103	452.0
6.9018	512.265232165	445.0
6.912	512.428102357	425.0
6.9222	512.590555685	420.0
6.9325	512.754179765	407.0
6.9427	512.915798502	421.0
6.953	513.078581976	423.0
6.9632	513.239370411	378.0
6.9734	513.399747309	347.0
6.9837	513.561279995	378.0
6.9939	513.72083297	372.0
7.0042	513.881535795	387.0
7.0144	514.04026908	349.0
7.0246	514.198596089	316.0
7.0349	514.358064113	339.0
7.0451	514.51557773	315.0
7.0554	514.6742265	294.0
7.0656	514.830930904	313.0
7.0758	514.987234225	257.0
7.0861	515.144663976	309.0
7.0963	515.300164301	318.0
7.1066	515.45678527	298.0
7.1168	515.611486725	247.0
7.127	515.765792224	273.0
7.1373	515.921209756	258.0
7.1475	516.074722523	246.0
7.1578	516.22934161	228.0
7.168	516.382065717	243.0
7.1782	516.53439893	230.0
7.1885	516.687829961	238.0
7.1987	516.839380574	213.0
7.209	516.992023366	208.0
7.2192	517.1427954	192.0
7.2294	517.293181536	195.0
7.2397	517.444651458	224.0
7.2499	517.594264996	191.0
7.2602	517.744956754	171.0
7.2704	517.893801665	194.0
7.2806	518.04226561	173.0
7.2909	518.191799489	194.0
7.3011	518.339500713	182.0
7.3114	518.488266374	163.0
7.3216	518.635208794	153.0
7.3318	518.781775117	153.0
7.3421	518.929397699	163.0
7.3523	519.07521105	157.0
7.3626	519.222075233	129.0
7.3728	519.36713948	126.0
7.383	519.511832437	127.0
7.3933	519.657568151	127.0
7.4035	519.801517759	115.0
7.4138	519.946504769	139.0
7.424	520.089714848	137.0
7.4342	520.232558383	118.0
7.4445	520.376431347	116.0
7.4547	520.518541035	106.0
7.465	520.661674864	102.0
7.4752	520.803054475	110.0
7.4854	520.944072226	106.0
7.4957	521.08610625	84.0
7.5059	521.226399534	79.0
7.5162	521.36770387	97.0
7.5264	521.507276409	80.0
7.5366	521.646491714	102.0
7.5469	521.786710301	96.0
7.5571	521.925210399	96.0
7.5674	522.064708625	90.0
7.5776	522.20249719	87.0
7.5878	522.339933087	69.0
7.5981	522.478359443	75.0
7.6083	522.615089274	81.0
7.6186	522.752804475	66.0
7.6288	522.888831868	72.0
7.639	523.024511101	88.0
7.6493	523.161168132	69.0
7.6595	523.296150324	46.0
