TL-DOS Lehrstuhlversuch
detector=R1408301
job_number=2015-10-23-002
irradiation_dose [mSv]=4.0

[BEGIN DATA]
time [sec] 	 temperature [K] 	 photoncount 
0.0	161.314801284	0.0
0.0102	162.732364651	0.0
0.0205	164.158710762	2.0
0.0307	165.566161646	0.0
0.041	166.982332621	1.0
0.0512	168.379743163	4.0
0.0614	169.772184738	0.0
0.0717	171.173253411	3.0
0.0819	172.555761716	3.0
0.0922	173.946835575	1.0
0.1024	175.31948147	0.0
0.1126	176.687246458	0.0
0.1229	178.063485656	3.0
0.1331	179.421493409	2.0
0.1434	180.787914919	2.0
0.1536	182.136235041	0.0
0.1638	183.479760755	1.0
0.1741	184.831610501	1.0
0.1843	186.165551896	0.0
0.1946	187.507757941	0.0
0.2048	188.832183388	1.0
0.215	190.151899392	4.0
0.2253	191.479791911	1.0
0.2355	192.790093447	0.0
0.2458	194.10851317	1.0
0.256	195.409467398	1.0
0.2662	196.705795643	1.0
0.2765	198.010155501	0.0
0.2867	199.29723612	0.0
0.297	200.592291056	0.0
0.3072	201.870190018	0.0
0.3174	203.143544978	0.0
0.3277	204.424789216	0.0
0.3379	205.689060434	0.0
0.3482	206.96116465	0.0
0.3584	208.216416928	0.0
0.3686	209.467205731	0.0
0.3789	210.725743999	0.0
0.3891	211.967610041	0.0
0.3994	213.217170265	0.0
0.4096	214.450177198	0.0
0.4198	215.678799757	0.0
0.4301	216.915034447	0.0
0.4403	218.134892372	0.0
0.4506	219.362308126	0.0
0.4608	220.573463941	0.0
0.471	221.780313083	0.0
0.4813	222.994639454	0.0
0.4915	224.192879287	0.0
0.5018	225.398543009	0.0
0.512	226.588234949	0.0
0.5222	227.773696537	0.0
0.5325	228.966502845	0.0
0.5427	230.143507697	1.0
0.553	231.327804874	0.0
0.5632	232.496413317	0.0
0.5734	233.660866378	0.0
0.5837	234.832533997	0.0
0.5939	235.98868019	1.0
0.6042	237.151989475	0.0
0.6144	238.299888059	0.0
0.6246	239.443704902	2.0
0.6349	240.594608448	0.0
0.6451	241.730265636	0.0
0.6554	242.872958973	0.0
0.6656	244.000514714	0.0
0.6758	245.12406105	0.0
0.6861	246.2545685	0.0
0.6963	247.370099785	0.0
0.7066	248.492542525	0.0
0.7168	249.600115936	0.0
0.727	250.703750995	0.0
0.7373	251.814223805	0.0
0.7475	252.909985854	0.0
0.7578	254.012536875	0.0
0.768	255.100482079	0.0
0.7782	256.184558725	0.0
0.7885	257.275351944	0.0
0.7987	258.351695104	0.0
0.809	259.434706924	0.0
0.8192	260.503371767	0.0
0.8294	261.568236611	0.0
0.8397	262.639698998	0.0
0.8499	263.696967407	0.0
0.8602	264.760786295	0.0
0.8704	265.810512461	0.0
0.8806	266.85650597	0.0
0.8909	267.908980103	0.0
0.9011	268.9475118	0.0
0.9114	269.99247789	0.0
0.9216	271.023601006	0.0
0.9318	272.051057615	0.0
0.9421	273.084879999	0.0
0.9523	274.105007033	1.0
0.9626	275.131454431	0.0
0.9728	276.144304177	0.0
0.983	277.153552393	0.0
0.9933	278.169053571	1.0
1.0035	279.171102106	0.0
1.0138	280.179358996	0.0
1.024	281.17425921	0.0
1.0342	282.165621719	0.0
1.0445	283.163126376	0.0
1.0547	284.147416795	0.0
1.065	285.137805546	0.0
1.0752	286.115074325	0.0
1.0854	287.088868095	1.0
1.0957	288.068695162	0.0
1.1059	289.035542172	0.0
1.1162	290.008379439	1.0
1.1264	290.968329245	0.0
1.1366	291.924865625	2.0
1.1469	292.887328381	2.0
1.1571	293.83704111	0.0
1.1674	294.792637939	1.0
1.1776	295.735575695	1.0
1.1878	296.675160517	0.0
1.1981	297.620566689	1.0
1.2083	298.553448788	0.0
1.2186	299.492110709	0.0
1.2288	300.4183379	0.0
1.239	301.341271576	0.0
1.2493	302.269923438	0.0
1.2595	303.186273176	2.0
1.2698	304.108300307	0.0
1.28	305.018113074	1.0
1.2902	305.924690693	0.0
1.3005	306.836885161	0.0
1.3107	307.736995521	1.0
1.321	308.642682661	2.0
1.3312	309.536371897	3.0
1.3414	310.426883319	1.0
1.3517	311.322912048	1.0
1.3619	312.207070822	1.0
1.3722	313.096707545	2.0
1.3824	313.974558988	1.0
1.3926	314.849288934	2.0
1.4029	315.729438411	2.0
1.4131	316.597928289	0.0
1.4234	317.471799037	3.0
1.4336	318.334093363	4.0
1.4438	319.193321509	1.0
1.4541	320.057873142	3.0
1.4643	320.910971806	3.0
1.4746	321.769355981	5.0
1.4848	322.616368889	2.0
1.495	323.460369955	5.0
1.5053	324.309600168	3.0
1.5155	325.147580378	8.0
1.5258	325.99075243	4.0
1.536	326.822754734	5.0
1.5462	327.651798573	7.0
1.5565	328.485978887	5.0
1.5667	329.309108569	5.0
1.577	330.137338085	3.0
1.5872	330.954595801	4.0
1.5974	331.76894748	8.0
1.6077	332.588344608	5.0
1.6179	333.396886941	8.0
1.6282	334.210438729	6.0
1.6384	335.013213157	10.0
1.6486	335.81313305	9.0
1.6589	336.618008976	12.0
1.6691	337.412222473	7.0
1.6794	338.21135665	10.0
1.6896	338.999904461	17.0
1.6998	339.785648323	9.0
1.7101	340.57626039	14.0
1.7203	341.356398985	15.0
1.7306	342.141371056	16.0
1.7408	342.915944371	19.0
1.751	343.687763429	14.0
1.7613	344.464364417	16.0
1.7715	345.230677543	12.0
1.7818	346.001738486	22.0
1.792	346.762584959	20.0
1.8022	347.520725984	31.0
1.8125	348.283564196	18.0
1.8227	349.036296865	30.0
1.833	349.793693211	30.0
1.8432	350.541056106	34.0
1.8534	351.285761499	27.0
1.8637	352.035080835	33.0
1.8739	352.774473717	33.0
1.8842	353.518447628	26.0
1.8944	354.252565898	38.0
1.9046	354.984073762	43.0
1.9149	355.720113802	43.0
1.9251	356.446403303	49.0
1.9354	357.177192648	41.0
1.9456	357.898301012	43.0
1.9558	358.616845231	55.0
1.9661	359.339841308	60.0
1.9763	360.053259643	56.0
1.9866	360.771098077	63.0
1.9968	361.479427094	64.0
2.007	362.185237408	84.0
2.0173	362.895420684	67.0
2.0275	363.596195954	84.0
2.0378	364.30131299	72.0
2.048	364.997089134	90.0
2.0582	365.69039121	83.0
2.0685	366.387988752	102.0
2.0787	367.076345014	115.0
2.089	367.768966099	103.0
2.0992	368.452411828	110.0
2.1094	369.133427336	119.0
2.1197	369.818662185	117.0
2.1299	370.494819527	131.0
2.1402	371.175166111	141.0
2.1504	371.846499944	150.0
2.1606	372.515446623	160.0
2.1709	373.188537869	147.0
2.1811	373.852712478	161.0
2.1914	374.521002088	153.0
2.2016	375.180438669	173.0
2.2118	375.837530401	177.0
2.2221	376.498693251	183.0
2.2323	377.151097482	208.0
2.2426	377.807543789	198.0
2.2528	378.45529396	224.0
2.263	379.100740835	241.0
2.2733	379.750186681	249.0
2.2835	380.391029127	274.0
2.2938	381.035842017	269.0
2.304	381.67211288	298.0
2.3142	382.306121268	309.0
2.3245	382.944057757	315.0
2.3347	383.573543314	338.0
2.345	384.206928951	361.0
2.3552	384.831923942	320.0
2.3654	385.454696551	366.0
2.3757	386.08132765	363.0
2.3859	386.699657582	372.0
2.3962	387.321818478	406.0
2.4064	387.935737426	428.0
2.4166	388.547473376	437.0
2.4269	389.162999437	476.0
2.4371	389.770371442	470.0
2.4474	390.38150652	464.0
2.4576	390.984545711	521.0
2.4678	391.585440592	531.0
2.4781	392.190058416	550.0
2.4883	392.786666689	572.0
2.4986	393.386971345	587.0
2.5088	393.97932359	607.0
2.519	394.569569525	540.0
2.5293	395.163472425	642.0
2.5395	395.749507719	599.0
2.5498	396.339173889	685.0
2.56	396.921028578	639.0
2.5702	397.500814286	695.0
2.5805	398.084192151	628.0
2.5907	398.659841837	670.0
2.601	399.239058054	720.0
2.6112	399.810601224	712.0
2.6214	400.380112079	737.0
2.6317	400.953151431	745.0
2.6419	401.518599562	755.0
2.6522	402.087551018	716.0
2.6624	402.648965408	738.0
2.6726	403.208383498	759.0
2.6829	403.771267554	743.0
2.6931	404.32669492	701.0
2.7034	404.885563526	727.0
2.7136	405.437028635	702.0
2.7238	405.986532823	715.0
2.7341	406.539441554	710.0
2.7443	407.08502574	689.0
2.7546	407.633990182	723.0
2.7648	408.17568233	673.0
2.775	408.715448309	669.0
2.7853	409.258558495	654.0
2.7955	409.794473941	681.0
2.8058	410.333709738	599.0
2.816	410.86580212	614.0
2.8262	411.396002468	660.0
2.8365	411.929487757	606.0
2.8467	412.455905811	585.0
2.857	412.985585373	589.0
2.8672	413.508248113	505.0
2.8774	414.02905235	538.0
2.8877	414.553083314	490.0
2.8979	415.070172285	505.0
2.9082	415.590464966	465.0
2.9184	416.103865176	485.0
2.9286	416.615439818	508.0
2.9389	417.130184003	466.0
2.9491	417.638109221	399.0
2.9594	418.149181373	403.0
2.9696	418.653483201	370.0
2.9798	419.155991813	434.0
2.9901	419.661613799	386.0
3.0003	420.160537662	354.0
3.0106	420.662552689	379.0
3.0208	421.157917375	366.0
3.031	421.651520624	386.0
3.0413	422.148182073	379.0
3.0515	422.638264101	373.0
3.0618	423.131382512	378.0
3.072	423.617968438	343.0
3.0822	424.102824143	351.0
3.0925	424.590683851	388.0
3.1027	425.072080737	344.0
3.113	425.556460197	398.0
3.1232	426.034422939	376.0
3.1334	426.510686122	385.0
3.1437	426.989900072	402.0
3.1539	427.462765734	402.0
3.1642	427.938561111	392.0
3.1744	428.408053487	448.0
3.1846	428.875876425	405.0
3.1949	429.346597835	440.0
3.2051	429.81108346	437.0
3.2154	430.278446882	433.0
3.2256	430.739619002	436.0
3.2358	431.199151269	457.0
3.2461	431.661530643	447.0
3.2563	432.117784742	492.0
3.2666	432.576865637	479.0
3.2768	433.029864952	533.0
3.287	433.481253474	515.0
3.2973	433.935438648	518.0
3.3075	434.383607097	526.0
3.3178	434.834552247	553.0
3.328	435.279523593	548.0
3.3382	435.722912694	585.0
3.3485	436.169048883	553.0
3.3587	436.609274975	620.0
3.369	437.05222856	556.0
3.3792	437.489314208	624.0
3.3894	437.92484565	573.0
3.3997	438.363075498	643.0
3.4099	438.795499986	646.0
3.4202	439.23060363	694.0
3.4304	439.659943329	660.0
3.4406	440.087756364	663.0
3.4509	440.518219985	653.0
3.4611	440.942981128	700.0
3.4714	441.370373948	742.0
3.4816	441.792104969	683.0
3.4918	442.212336382	690.0
3.5021	442.635171408	682.0
3.5123	443.052405014	719.0
3.5226	443.472223658	653.0
3.5328	443.886480841	695.0
3.543	444.299264993	699.0
3.5533	444.714606616	776.0
3.5635	445.124446086	711.0
3.5738	445.536824783	676.0
3.584	445.943740579	730.0
3.5942	446.349209447	714.0
3.6045	446.757190464	752.0
3.6147	447.159766836	687.0
3.625	447.564837436	682.0
3.6352	447.964541946	725.0
3.6454	448.362825171	687.0
3.6557	448.763576026	736.0
3.6659	449.159018015	710.0
3.6762	449.55691003	674.0
3.6864	449.949531052	696.0
3.6966	450.340755977	660.0
3.7069	450.7344048	648.0
3.7171	451.122838841	659.0
3.7274	451.513679488	665.0
3.7376	451.899342554	700.0
3.7478	452.283634265	644.0
3.7581	452.670306917	647.0
3.7683	453.051857203	662.0
3.7786	453.435771446	666.0
3.7888	453.814599864	687.0
3.799	454.192081229	610.0
3.8093	454.571901341	629.0
3.8195	454.946689865	653.0
3.8298	455.323800452	627.0
3.84	455.695915344	598.0
3.8502	456.066707055	598.0
3.8605	456.439796067	587.0
3.8707	456.807942659	602.0
3.881	457.178370163	549.0
3.8912	457.543890505	634.0
3.9014	457.908111115	570.0
3.9117	458.274588314	609.0
3.9219	458.636210681	582.0
3.9322	459.000073539	554.0
3.9424	459.359116198	551.0
3.9526	459.716882159	590.0
3.9629	460.076864718	605.0
3.9731	460.432078481	588.0
3.9834	460.78949303	531.0
3.9936	461.142172802	612.0
4.0038	461.493598503	588.0
4.0141	461.847201518	578.0
4.0243	462.19612025	561.0
4.0346	462.547200765	547.0
4.0448	462.893630413	600.0
4.055	463.238828214	581.0
4.0653	463.586164743	583.0
4.0755	463.928900003	551.0
4.0858	464.273758735	539.0
4.096	464.614049022	551.0
4.1062	464.953129292	619.0
4.1165	465.294310389	529.0
4.1267	465.630971759	573.0
4.137	465.969718969	530.0
4.1472	466.303978696	535.0
4.1574	466.637049849	588.0
4.1677	466.972184599	585.0
4.1779	467.302879719	557.0
4.1882	467.635623716	576.0
4.1984	467.963959754	562.0
4.2086	468.291128283	554.0
4.2189	468.620323837	566.0
4.2291	468.945158441	517.0
4.2394	469.272005611	580.0
4.2496	469.59452294	600.0
4.2598	469.91589345	563.0
4.2701	470.239255063	569.0
4.2803	470.558333009	593.0
4.2906	470.879387855	610.0
4.3008	471.196189592	556.0
4.311	471.511864834	581.0
4.3213	471.829495893	580.0
4.3315	472.142919201	584.0
4.3418	472.458284373	546.0
4.352	472.76947181	541.0
4.3622	473.079552714	560.0
4.3725	473.391554775	548.0
4.3827	473.699423654	566.0
4.393	474.009199983	578.0
4.4032	474.314872615	569.0
4.4134	474.619458324	562.0
4.4237	474.925931144	575.0
4.4339	475.228344028	539.0
4.4442	475.53263056	506.0
4.4544	475.832886118	532.0
4.4646	476.132074017	557.0
4.4749	476.433115583	541.0
4.4851	476.730169162	541.0
4.4954	477.029063186	527.0
4.5056	477.323997672	552.0
4.5158	477.617883419	562.0
4.5261	477.913589983	540.0
4.5363	478.205379235	540.0
4.5466	478.498976314	530.0
4.5568	478.788684027	546.0
4.567	479.077361586	576.0
4.5773	479.367827694	530.0
4.5875	479.654445912	490.0
4.5978	479.942839919	577.0
4.608	480.227413486	500.0
4.6182	480.510975156	546.0
4.6285	480.796293678	548.0
4.6387	481.077832502	537.0
4.649	481.361115645	511.0
4.6592	481.640646053	514.0
4.6694	481.919182496	525.0
4.6797	482.199444657	516.0
4.6899	482.475994102	546.0
4.7002	482.754256955	482.0
4.7104	483.028833578	484.0
4.7206	483.30243385	515.0
4.7309	483.577729258	499.0
4.7411	483.849377746	514.0
4.7514	484.122709277	513.0
4.7616	484.392419904	469.0
4.7718	484.661171484	506.0
4.7821	484.931588158	454.0
4.7923	485.198422543	485.0
4.8026	485.466910144	480.0
4.8128	485.73184101	458.0
4.823	485.995829826	485.0
4.8333	486.261454226	452.0
4.8435	486.523559822	501.0
4.8538	486.787289336	487.0
4.864	487.047525148	511.0
4.8742	487.306835603	450.0
4.8845	487.567752658	499.0
4.8947	487.825213268	467.0
4.905	488.084269017	448.0
4.9152	488.339892979	476.0
4.9254	488.594607982	477.0
4.9357	488.850901115	499.0
4.9459	489.103799056	480.0
4.9562	489.358263868	466.0
4.9664	489.60935771	459.0
4.9766	489.859558702	443.0
4.9869	490.111309856	494.0
4.9971	490.359725988	419.0
5.0074	490.609681222	449.0
5.0176	490.856325226	471.0
5.0278	491.102092203	486.0
5.0381	491.34938187	495.0
5.0483	491.593395618	478.0
5.0586	491.838921193	426.0
5.0688	492.081194218	452.0
5.079	492.322605759	451.0
5.0893	492.565513005	458.0
5.0995	492.805202388	497.0
5.1098	493.046376804	454.0
5.12	493.284356313	482.0
5.1302	493.521489604	492.0
5.1405	493.760092093	488.0
5.1507	493.995533746	470.0
5.161	494.232434115	485.0
5.1712	494.466196195	459.0
5.1814	494.699127055	469.0
5.1917	494.933501076	461.0
5.2019	495.164770275	497.0
5.2122	495.39747234	481.0
5.2224	495.627091733	490.0
5.2326	495.855894636	509.0
5.2429	496.086115125	473.0
5.2531	496.313285815	495.0
5.2634	496.541863978	451.0
5.2736	496.767414099	472.0
5.2838	496.9921622	505.0
5.2941	497.218302764	502.0
5.3043	497.441447578	466.0
5.3146	497.665974922	466.0
5.3248	497.887527886	494.0
5.335	498.108293044	474.0
5.3453	498.330425988	491.0
5.3555	498.549616271	451.0
5.3658	498.770164584	474.0
5.376	498.987791228	524.0
5.3862	499.204644027	497.0
5.3965	499.422840373	507.0
5.4067	499.638146207	446.0
5.417	499.854786004	499.0
5.4272	500.06855591	468.0
5.4374	500.281565684	459.0
5.4477	500.495895195	487.0
5.4579	500.70738542	472.0
5.4682	500.920185967	450.0
5.4784	501.130167483	455.0
5.4886	501.339402338	455.0
5.4989	501.549933542	456.0
5.5091	501.757675777	469.0
5.5194	501.966705113	436.0
5.5296	502.172965376	459.0
5.5398	502.37849221	455.0
5.5501	502.58529242	454.0
5.5603	502.789353086	422.0
5.5706	502.994678043	454.0
5.5808	503.197283	433.0
5.591	503.399167527	375.0
5.6013	503.602302862	429.0
5.6115	503.802747204	412.0
5.6218	504.004433431	394.0
5.632	504.203447861	430.0
5.6422	504.401754628	414.0
5.6525	504.601290037	432.0
5.6627	504.798182141	389.0
5.673	504.996294123	425.0
5.6832	505.191781657	383.0
5.6934	505.386574069	369.0
5.7037	505.582573349	353.0
5.7139	505.775976169	367.0
5.7242	505.970577247	354.0
5.7344	506.162600388	326.0
5.7446	506.353940725	367.0
5.7549	506.546466543	341.0
5.7651	506.736441914	344.0
5.7754	506.927594309	347.0
5.7856	507.116214451	300.0
5.7958	507.304163891	303.0
5.8061	507.493277802	310.0
5.8163	507.679886466	279.0
5.8266	507.867651294	306.0
5.8368	508.052928746	308.0
5.847	508.237547381	277.0
5.8573	508.423309851	274.0
5.8675	508.606611471	300.0
5.8778	508.791048766	247.0
5.888	508.973042766	226.0
5.8982	509.154389625	244.0
5.9085	509.336860047	228.0
5.9187	509.51691323	212.0
5.929	509.698081962	237.0
5.9392	509.876850699	225.0
5.9494	510.054983762	250.0
5.9597	510.234220478	204.0
5.9699	510.411082793	227.0
5.9802	510.589040887	188.0
5.9904	510.764641517	210.0
6.0006	510.93961774	206.0
6.0109	511.115678057	183.0
6.0211	511.289406051	184.0
6.0314	511.464210405	172.0
6.0416	511.636699074	165.0
6.0518	511.808574401	169.0
6.0621	511.98151461	162.0
6.0723	512.152163829	165.0
6.0826	512.323870333	149.0
6.0928	512.49330219	155.0
6.103	512.662131576	148.0
6.1133	512.832006971	140.0
6.1235	512.999631976	134.0
6.1338	513.16829553	146.0
6.144	513.334724748	120.0
6.1542	513.50056217	124.0
6.1645	513.667427066	97.0
6.1747	513.832081453	111.0
6.185	513.997755982	116.0
6.1952	514.161235773	112.0
6.2054	514.324134256	94.0
6.2157	514.488042003	107.0
6.2259	514.649778416	85.0
6.2362	514.812516893	93.0
6.2464	514.973099525	88.0
6.2566	515.133111152	78.0
6.2669	515.294114157	70.0
6.2771	515.452984307	95.0
6.2874	515.612838764	72.0
6.2976	515.770575581	77.0
6.3078	515.927751512	53.0
6.3181	516.085901251	66.0
6.3283	516.241955935	57.0
6.3386	516.398977481	50.0
6.3488	516.553918916	57.0
6.359	516.708309404	63.0
6.3693	516.863656444	72.0
6.3795	517.016945556	44.0
6.3898	517.171184395	49.0
6.4	517.323379988	58.0
6.4102	517.475034397	43.0
6.4205	517.627628406	43.0
6.4307	517.778200957	34.0
6.441	517.929706405	41.0
6.4512	518.079204815	49.0
6.4614	518.228171633	41.0
6.4717	518.3780614	45.0
6.4819	518.525965533	48.0
6.4922	518.674786029	45.0
6.5024	518.821635057	32.0
6.5126	518.967961914	28.0
6.5229	519.115195362	31.0
6.5331	519.260478365	20.0
6.5434	519.406661493	31.0
6.5536	519.55090809	19.0
6.5638	519.69464177	22.0
6.5741	519.839265974	21.0
6.5843	519.9819743	23.0
6.5946	520.125566798	28.0
6.6048	520.267257084	21.0
6.615	520.408443542	18.0
6.6253	520.550504744	15.0
6.6355	520.690684019	21.0
6.6458	520.831731798	17.0
6.656	520.970911075	13.0
6.6662	521.109595453	15.0
6.6765	521.249139073	10.0
6.6867	521.386834118	13.0
6.697	521.525382274	10.0
6.7072	521.662095043	16.0
6.7174	521.798321683	16.0
6.7277	521.935392337	13.0
6.7379	522.070647176	10.0
6.7482	522.206740008	14.0
6.7584	522.341029978	16.0
6.7686	522.474842435	15.0
6.7789	522.609483949	12.0
6.7891	522.742341827	16.0
6.7994	522.876022848	16.0
6.8096	523.007932957	9.0
6.8198	523.139374014	12.0
6.8301	523.271629437	9.0
6.8403	523.402132832	8.0
6.8506	523.533444783	7.0
6.8608	523.663017206	8.0
6.871	523.79212889	10.0
6.8813	523.922040507	9.0
6.8915	524.050231146	7.0
6.9018	524.179216011	12.0
6.912	524.306492175	10.0
6.9222	524.433315766	15.0
6.9325	524.560925114	5.0
6.9427	524.686843982	10.0
6.953	524.813543002	7.0
6.9632	524.938563602	2.0
6.9734	525.06313965	5.0
6.9837	525.188487528	4.0
6.9939	525.312174886	11.0
7.0042	525.43662857	5.0
7.0144	525.559433579	5.0
7.0246	525.681801913	5.0
7.0349	525.8049284	8.0
7.0451	525.926423794	3.0
7.0554	526.048671932	5.0
7.0656	526.169300614	8.0
7.0758	526.289500359	10.0
7.0861	526.410444822	7.0
7.0963	526.529787097	7.0
7.1066	526.649868777	3.0
7.1168	526.7683597	7.0
7.127	526.886429288	9.0
7.1373	527.005230396	11.0
7.1475	527.12245771	4.0
7.1578	527.240411325	5.0
7.168	527.356802374	5.0
7.1782	527.472779555	4.0
7.1885	527.589475292	1.0
7.1987	527.704625126	6.0
7.209	527.820488389	4.0
7.2192	527.934816778	3.0
7.2294	528.048738633	7.0
7.2397	528.16336631	2.0
7.2499	528.27647548	3.0
7.2602	528.390285437	4.0
7.2704	528.502587719	2.0
7.2806	528.614490673	2.0
7.2909	528.727086939	5.0
7.3011	528.83819161	3.0
7.3114	528.949984648	6.0
7.3216	529.06029673	4.0
7.3318	529.170216561	6.0
7.3421	529.280817418	8.0
7.3523	529.389953112	4.0
7.3626	529.499764975	0.0
7.3728	529.608122127	5.0
7.383	529.716093979	4.0
7.3933	529.824734789	2.0
7.4035	529.931936401	5.0
7.4138	530.039802198	3.0
7.424	530.146239066	6.0
7.4342	530.252297461	8.0
7.4445	530.359012958	2.0
7.4547	530.464314764	2.0
7.465	530.570268984	0.0
7.4752	530.674819597	3.0
7.4854	530.778998446	1.0
7.4957	530.883822751	3.0
7.5059	530.987258418	3.0
7.5162	531.091334937	6.0
7.5264	531.194032724	6.0
7.5366	531.296365334	2.0
7.5469	531.399331963	3.0
7.5571	531.500934562	4.0
7.5674	531.603166657	6.0
7.5776	531.704044453	4.0
7.5878	531.804563544	3.0
7.5981	531.905705418	1.0
7.6083	532.005507435	3.0
7.6186	532.105927792	3.0
7.6288	532.205017851	1.0
7.639	532.303755561	2.0
7.6493	532.403105017	1.0
7.6595	532.501138362	4.0
7.6698	532.599779088	3.0
7.68	532.697113092	4.0
7.6902	532.794100991	3.0
7.7005	532.891689795	3.0
7.7107	532.987985811	4.0
7.721	533.084878445	0.0
7.7312	533.180487514	3.0
7.7414	533.275756612	3.0
7.7517	533.371615965	1.0
7.7619	533.466205442	7.0
7.7722	533.561380962	0.0
7.7824	533.655295665	1.0
7.7926	533.748876422	2.0
7.8029	533.843036974	4.0
7.8131	533.935950153	3.0
