TL-DOS Lehrstuhlversuch
detector=R1407504
job_number=2015-10-22-014
irradiation_dose [mSv]=3.0

[BEGIN DATA]
time [sec] 	 temperature [K] 	 photoncount 
0.0	108.355410546	0.0
0.0102	110.365962064	0.0
0.0205	112.386873996	2.0
0.0307	114.378947915	1.0
0.041	116.381287034	3.0
0.0512	118.35505317	2.0
0.0614	120.319772849	4.0
0.0717	122.294616771	1.0
0.0819	124.241280062	1.0
0.0922	126.197974549	2.0
0.1024	128.126747394	1.0
0.1126	130.046680002	1.0
0.1229	131.976506064	0.0
0.1331	133.878793891	2.0
0.1434	135.790884247	1.0
0.1536	137.675689452	3.0
0.1638	139.55185594	4.0
0.1741	141.437690353	1.0
0.1843	143.296614283	1.0
0.1946	145.165117288	2.0
0.2048	147.006957125	1.0
0.215	148.84035517	0.0
0.2253	150.683200753	0.0
0.2355	152.499749295	1.0
0.2458	154.325658551	0.0
0.256	156.125512443	0.0
0.2662	157.917116979	0.0
0.2765	159.717953691	0.0
0.2867	161.49309282	1.0
0.297	163.277379279	0.0
0.3072	165.036204324	1.0
0.3174	166.786968062	0.0
0.3277	168.546753522	0.0
0.3379	170.281427193	0.0
0.3482	172.025039674	0.0
0.3584	173.74377115	0.0
0.3686	175.454625082	0.0
0.3789	177.174295082	0.0
0.3891	178.86942573	0.0
0.3994	180.573291423	0.0
0.4096	182.252843291	0.0
0.4198	183.924697188	0.0
0.4301	185.605166183	0.0
0.4403	187.261655219	0.0
0.4506	188.926680179	0.0
0.4608	190.567945562	0.0
0.471	192.201688455	0.0
0.4813	193.84385006	1.0
0.4915	195.462578344	0.0
0.5018	197.089647969	0.0
0.512	198.693499633	0.0
0.5222	200.290000288	0.0
0.5325	201.894727744	0.0
0.5427	203.476556057	0.0
0.553	205.066535565	0.0
0.5632	206.633826381	0.0
0.5734	208.193933758	0.0
0.5837	209.762080401	0.0
0.5939	211.307849903	0.0
0.6042	212.861584787	0.0
0.6144	214.393148183	1.0
0.6246	215.917691891	0.0
0.6349	217.450091605	0.0
0.6451	218.960624279	0.0
0.6554	220.478940759	0.0
0.6656	221.975591165	0.0
0.6758	223.465381901	0.0
0.6861	224.962849561	0.0
0.6963	226.438948653	0.0
0.7066	227.922654116	0.0
0.7168	229.385187395	0.0
0.727	230.841017377	0.0
0.7373	232.304349281	0.0
0.7475	233.746799728	0.0
0.7578	235.196683154	0.0
0.768	236.62587703	0.0
0.7782	238.048520414	0.0
0.7885	239.478494709	0.0
0.7987	240.888063554	0.0
0.809	242.304895938	0.0
0.8192	243.701510404	2.0
0.8294	245.091723701	0.0
0.8397	246.489100796	0.0
0.8499	247.866537597	1.0
0.8602	249.251072359	0.0
0.8704	250.615850084	0.0
0.8806	251.974372559	0.0
0.8909	253.339895528	1.0
0.9011	254.685932756	0.0
0.9114	256.038906141	3.0
0.9216	257.372572865	0.0
0.9318	258.70012693	1.0
0.9421	260.03452191	1.0
0.9523	261.349875338	0.0
0.9626	262.67200681	0.0
0.9728	263.975271727	0.0
0.983	265.272563329	1.0
0.9933	266.576539901	0.0
1.0035	267.861908986	1.0
1.0138	269.153901606	2.0
1.024	270.427457746	0.0
1.0342	271.695176737	0.0
1.0445	272.96942831	0.0
1.0547	274.225496565	0.0
1.065	275.488037367	0.0
1.0752	276.732561962	0.0
1.0854	277.971382468	1.0
1.0957	279.216586642	1.0
1.1059	280.444022	0.0
1.1162	281.677782358	0.0
1.1264	282.8939372	0.0
1.1366	284.104517981	2.0
1.1469	285.321336911	0.0
1.1571	286.520792076	1.0
1.1674	287.726428059	0.0
1.1776	288.914859855	0.0
1.1878	290.097844656	0.0
1.1981	291.286925402	1.0
1.2083	292.459038201	0.0
1.2186	293.637190922	0.0
1.2288	294.798531638	2.0
1.239	295.954549525	0.0
1.2493	297.116524397	1.0
1.2595	298.261918118	5.0
1.2698	299.413214077	1.0
1.28	300.548081271	0.0
1.2902	301.677746974	2.0
1.3005	302.813233868	2.0
1.3107	303.932517589	0.0
1.321	305.057569003	1.0
1.3312	306.166566156	1.0
1.3414	307.27048039	2.0
1.3517	308.380083117	3.0
1.3619	309.473852033	1.0
1.3722	310.573257163	0.0
1.3824	311.656974001	4.0
1.3926	312.735723787	2.0
1.4029	313.820032393	7.0
1.4131	314.888868131	1.0
1.4234	315.963211602	2.0
1.4336	317.022224404	4.0
1.4438	318.076383383	5.0
1.4541	319.135974465	4.0
1.4643	320.180445392	5.0
1.4746	321.230298501	6.0
1.4848	322.265170413	5.0
1.495	323.295299147	3.0
1.5053	324.330736157	7.0
1.5155	325.351397686	4.0
1.5258	326.377318705	6.0
1.536	327.388600035	10.0
1.5462	328.395246311	4.0
1.5565	329.407079856	8.0
1.5667	330.404474737	9.0
1.577	331.407009216	6.0
1.5872	332.395237725	14.0
1.5974	333.37893684	15.0
1.6077	334.367704978	10.0
1.6179	335.34236359	14.0
1.6282	336.322044638	13.0
1.6384	337.287745832	9.0
1.6486	338.249020882	11.0
1.6589	339.215249402	18.0
1.6691	340.167690033	12.0
1.6794	341.125038611	17.0
1.6896	342.068726014	23.0
1.6998	343.00808817	13.0
1.7101	343.952290879	18.0
1.7203	344.883020002	22.0
1.7306	345.818545192	12.0
1.7408	346.740720623	26.0
1.751	347.658669404	31.0
1.7613	348.581348394	36.0
1.7715	349.490860937	22.0
1.7818	350.405060218	38.0
1.792	351.306214057	22.0
1.8022	352.203237594	48.0
1.8125	353.104883512	36.0
1.8227	353.993663122	43.0
1.833	354.887022632	46.0
1.8432	355.767634079	37.0
1.8534	356.644209377	51.0
1.8637	357.525301687	57.0
1.8739	358.393820984	69.0
1.8842	359.266815779	75.0
1.8944	360.127353111	52.0
1.9046	360.983946302	63.0
1.9149	361.844953535	51.0
1.9251	362.693674366	89.0
1.9354	363.546768674	105.0
1.9456	364.387689494	91.0
1.9558	365.224756083	85.0
1.9661	366.066136093	100.0
1.9763	366.895509777	108.0
1.9866	367.729157241	98.0
1.9968	368.550908721	109.0
2.007	369.368893828	125.0
2.0173	370.19109403	140.0
2.0275	371.001561598	139.0
2.0378	371.816205523	149.0
2.048	372.61922464	147.0
2.0582	373.418563241	168.0
2.0685	374.222020851	167.0
2.0787	375.014013281	175.0
2.089	375.810086864	216.0
2.0992	376.594800634	195.0
2.1094	377.375917789	206.0
2.1197	378.161060057	244.0
2.1299	378.9349985	260.0
2.1402	379.712925065	226.0
2.1504	380.479750772	242.0
2.1606	381.243061849	290.0
2.1709	382.010306286	275.0
2.1811	382.766602295	296.0
2.1914	383.526795515	295.0
2.2016	384.276140927	303.0
2.2118	385.02205183	325.0
2.2221	385.771806426	377.0
2.2323	386.510862174	375.0
2.2426	387.253726291	387.0
2.2528	387.985989885	402.0
2.263	388.714897259	424.0
2.2733	389.447560709	446.0
2.2835	390.169769197	448.0
2.2938	390.895699241	461.0
2.304	391.611270406	451.0
2.3142	392.32356186	518.0
2.3245	393.039523767	454.0
2.3347	393.74526904	469.0
2.345	394.454651033	520.0
2.3552	395.153910285	501.0
2.3654	395.849964589	610.0
2.3757	396.549605676	563.0
2.3859	397.239263023	567.0
2.3962	397.932474189	607.0
2.4064	398.615793369	642.0
2.4166	399.29598066	613.0
2.4269	399.97967297	614.0
2.4371	400.653609126	628.0
2.4474	401.33101809	667.0
2.4576	401.998760562	632.0
2.4678	402.663442538	626.0
2.4781	403.331549635	627.0
2.4883	403.990122975	603.0
2.4986	404.652089958	624.0
2.5088	405.304610803	615.0
2.519	405.954140919	653.0
2.5293	406.607018077	662.0
2.5395	407.250578807	639.0
2.5498	407.897455819	603.0
2.56	408.535102025	607.0
2.5702	409.169825676	590.0
2.5805	409.807820071	539.0
2.5907	410.436710413	542.0
2.601	411.068841441	543.0
2.6112	411.691952084	508.0
2.6214	412.312206794	543.0
2.6317	412.935657689	443.0
2.6419	413.550212064	497.0
2.6522	414.167933251	453.0
2.6624	414.776839679	459.0
2.6726	415.382955277	450.0
2.6829	415.992194201	431.0
2.6931	416.592739407	407.0
2.7034	417.196379235	378.0
2.7136	417.791405242	351.0
2.7238	418.383704038	368.0
2.7341	418.979054963	351.0
2.7443	419.565910347	341.0
2.7546	420.15578981	335.0
2.7648	420.73725181	307.0
2.775	421.316048768	271.0
2.7853	421.897828278	309.0
2.7955	422.47130591	332.0
2.8058	423.047738684	311.0
2.816	423.615945877	297.0
2.8262	424.181548779	310.0
2.8365	424.750066245	278.0
2.8467	425.310471079	305.0
2.857	425.873763691	296.0
2.8672	426.429018229	323.0
2.8774	426.981727842	302.0
2.8877	427.53728558	328.0
2.8979	428.084915619	311.0
2.9082	428.635367607	335.0
2.9184	429.177964755	323.0
2.9286	429.718074991	327.0
2.9389	430.260968426	327.0
2.9491	430.79611488	383.0
2.9594	431.334018955	387.0
2.9696	431.864247245	367.0
2.9798	432.392045314	400.0
2.9901	432.922563139	375.0
3.0003	433.445510579	422.0
3.0106	433.971152778	395.0
3.0208	434.489294167	437.0
3.031	435.005060734	461.0
3.0413	435.523485058	431.0
3.0515	436.034511568	427.0
3.0618	436.54817141	445.0
3.072	437.054501427	452.0
3.0822	437.558510757	484.0
3.0925	438.065117259	522.0
3.1027	438.564494586	497.0
3.113	439.066445215	519.0
3.1232	439.561233108	511.0
3.1334	440.053753216	540.0
3.1437	440.54881129	497.0
3.1539	441.036804984	534.0
3.1642	441.52731332	564.0
3.1744	442.010822199	551.0
3.1846	442.492114989	555.0
3.1949	442.97588789	571.0
3.2051	443.452757449	599.0
3.2154	443.932084326	612.0
3.2256	444.404571303	558.0
3.2358	444.874892709	598.0
3.2461	445.347637691	613.0
3.2563	445.813636695	622.0
3.2666	446.282037002	565.0
3.2768	446.74375333	574.0
3.287	447.203353451	619.0
3.2973	447.665321902	617.0
3.3075	448.120698154	614.0
3.3178	448.578420969	658.0
3.328	449.029612171	585.0
3.3382	449.478735407	598.0
3.3485	449.930172984	603.0
3.3587	450.375168636	638.0
3.369	450.822457361	572.0
3.3792	451.263363364	544.0
3.3894	451.702248541	581.0
3.3997	452.143395303	565.0
3.4099	452.578246988	592.0
3.4202	453.015339473	571.0
3.4304	453.446194735	606.0
3.4406	453.875075238	549.0
3.4509	454.306165771	561.0
3.4611	454.731104727	544.0
3.4714	455.158233403	543.0
3.4816	455.579267037	528.0
3.4918	455.998370928	567.0
3.5021	456.41963447	491.0
3.5123	456.834886665	542.0
3.5226	457.252278663	477.0
3.5328	457.66371456	574.0
3.543	458.073264703	498.0
3.5533	458.484925267	524.0
3.5635	458.890711516	519.0
3.5738	459.29858879	479.0
3.584	459.700645736	532.0
3.5942	460.100859916	507.0
3.6045	460.503136408	504.0
3.6147	460.899672494	499.0
3.625	461.298251939	512.0
3.6352	461.691143734	520.0
3.6454	462.082234769	496.0
3.6557	462.475341105	476.0
3.6659	462.862837891	483.0
3.6762	463.252331457	473.0
3.6864	463.636267026	520.0
3.6966	464.018442885	482.0
3.7069	464.402588105	496.0
3.7171	464.781251648	478.0
3.7274	465.161866453	454.0
3.7376	465.53704996	490.0
3.7478	465.91051387	463.0
3.7581	466.285902248	467.0
3.7683	466.655933908	439.0
3.7786	467.027872349	453.0
3.7888	467.394503302	433.0
3.799	467.759453858	499.0
3.8093	468.126285012	508.0
3.8195	468.487881558	465.0
3.8298	468.851341419	496.0
3.84	469.209614779	443.0
3.8502	469.566246049	523.0
3.8605	469.924715046	542.0
3.8707	470.278068763	493.0
3.881	470.633243318	467.0
3.8912	470.983349603	476.0
3.9014	471.331851229	491.0
3.9117	471.682148691	463.0
3.9219	472.027447478	473.0
3.9322	472.374525597	456.0
3.9424	472.71665098	522.0
3.9526	473.057208283	536.0
3.9629	473.399520485	476.0
3.9731	473.73694796	538.0
3.9834	474.076114206	484.0
3.9936	474.410440617	451.0
4.0038	474.743234694	484.0
4.0141	475.077743665	464.0
4.0243	475.40747926	436.0
4.0346	475.738913989	484.0
4.0448	476.065619211	434.0
4.055	476.390827029	498.0
4.0653	476.717710649	444.0
4.0755	477.039929705	444.0
4.0858	477.363809163	470.0
4.096	477.683066925	452.0
4.1062	478.000861418	460.0
4.1165	478.320293512	425.0
4.1267	478.635167374	476.0
4.137	478.951663788	488.0
4.1472	479.26364386	488.0
4.1574	479.574194019	453.0
4.1677	479.88634445	480.0
4.1779	480.194040556	461.0
4.1882	480.503322227	456.0
4.1984	480.808190509	456.0
4.2086	481.111661474	472.0
4.2189	481.416696231	421.0
4.2291	481.717378203	506.0
4.2394	482.019609596	470.0
4.2496	482.317528206	392.0
4.2598	482.614081352	419.0
4.2701	482.912162642	425.0
4.2803	483.205990372	410.0
4.2906	483.501332202	411.0
4.3008	483.792459562	443.0
4.311	484.082252585	418.0
4.3213	484.373538917	392.0
4.3315	484.660668651	425.0
4.3418	484.949277971	411.0
4.352	485.233768893	430.0
4.3622	485.516955894	435.0
4.3725	485.801602163	408.0
4.3827	486.082186587	419.0
4.393	486.364216869	441.0
4.4032	486.642222634	391.0
4.4134	486.918954202	382.0
4.4237	487.197111773	381.0
4.4339	487.471300091	386.0
4.4442	487.746901308	418.0
4.4544	488.018569749	405.0
4.4646	488.28899304	386.0
4.4749	488.560809828	403.0
4.4851	488.828747844	441.0
4.4954	489.09806655	386.0
4.5056	489.363542132	401.0
4.5158	489.627800947	395.0
4.5261	489.893421493	351.0
4.5363	490.155251686	363.0
4.5466	490.418431096	390.0
4.5568	490.677854988	394.0
4.567	490.93608985	356.0
4.5773	491.195655402	418.0
4.5875	491.451517005	361.0
4.5978	491.708697068	392.0
4.608	491.962207223	393.0
4.6182	492.214555452	395.0
4.6285	492.468204037	371.0
4.6387	492.718233108	411.0
4.649	492.969550583	390.0
4.6592	493.217281808	365.0
4.6694	493.463877594	377.0
4.6797	493.711744094	411.0
4.6899	493.956073587	399.0
4.7002	494.201662116	406.0
4.7104	494.443746145	381.0
4.7206	494.684720619	422.0
4.7309	494.92693684	406.0
4.7411	495.165696683	435.0
4.7514	495.405686861	437.0
4.7616	495.642252426	389.0
4.7718	495.877733729	429.0
4.7821	496.114428472	450.0
4.7923	496.347745628	409.0
4.8026	496.582265073	414.0
4.8128	496.813437971	413.0
4.823	497.043551324	439.0
4.8333	497.274850456	398.0
4.8435	497.502848994	402.0
4.8538	497.732022415	391.0
4.864	497.957925575	464.0
4.8742	498.182793344	397.0
4.8845	498.40881986	389.0
4.8947	498.631621023	432.0
4.905	498.855570285	429.0
4.9152	499.076323835	426.0
4.9254	499.296065596	375.0
4.9357	499.51693969	414.0
4.9459	499.734661954	425.0
4.9562	499.953506146	394.0
4.9664	500.169227475	400.0
4.9766	500.383960078	394.0
4.9869	500.599799202	390.0
4.9971	500.812558345	374.0
5.0074	501.026413841	380.0
5.0176	501.237217661	415.0
5.0278	501.447055293	442.0
5.0381	501.657974224	413.0
5.0483	501.865883383	412.0
5.0586	502.074863902	348.0
5.0688	502.280862311	374.0
5.079	502.485916557	344.0
5.0893	502.692027453	345.0
5.0995	502.895197187	360.0
5.1098	503.099413858	346.0
5.12	503.300716398	345.0
5.1302	503.501096299	341.0
5.1405	503.702508762	363.0
5.1507	503.901047108	386.0
5.161	504.100608527	295.0
5.1712	504.297322244	337.0
5.1814	504.493134354	350.0
5.1917	504.689955488	298.0
5.2019	504.883968023	307.0
5.2122	505.078980308	302.0
5.2224	505.271209807	285.0
5.2326	505.462558252	284.0
5.2429	505.654892719	294.0
5.2531	505.844482611	310.0
5.2634	506.035049464	287.0
5.2736	506.222896966	267.0
5.2838	506.409883497	288.0
5.2941	506.597833574	277.0
5.3043	506.783101641	290.0
5.3146	506.969324398	262.0
5.3248	507.152889793	279.0
5.335	507.335613844	247.0
5.3453	507.519279476	226.0
5.3555	507.700324236	262.0
5.3658	507.882301923	225.0
5.376	508.061682825	250.0
5.3862	508.240241561	225.0
5.3965	508.419720415	199.0
5.4067	508.596638141	187.0
5.417	508.774467528	223.0
5.4272	508.949759324	179.0
5.4374	509.124247698	177.0
5.4477	509.299635213	174.0
5.4579	509.472519984	180.0
5.4682	509.646295633	194.0
5.4784	509.817591539	170.0
5.4886	509.988102335	157.0
5.4989	510.159491778	151.0
5.5091	510.328435527	174.0
5.5194	510.498249847	148.0
5.5296	510.66564095	147.0
5.5398	510.832264841	153.0
5.5501	510.999747349	153.0
5.5603	511.164839915	147.0
5.5706	511.330783206	129.0
5.5808	511.494358519	142.0
5.591	511.65718411	113.0
5.6013	511.820848745	114.0
5.6115	511.982177917	127.0
5.6218	512.144338423	114.0
5.632	512.30418493	119.0
5.6422	512.463298804	103.0
5.6525	512.623232596	100.0
5.6627	512.780884165	94.0
5.673	512.939348115	90.0
5.6832	513.095550817	92.0
5.6934	513.251037586	74.0
5.7037	513.407325583	88.0
5.7139	513.561383381	68.0
5.7242	513.716235042	84.0
5.7344	513.868877	77.0
5.7446	514.020819347	66.0
5.7549	514.173544657	68.0
5.7651	514.324090606	65.0
5.7754	514.475412322	74.0
5.7856	514.624574707	57.0
5.7958	514.773053429	71.0
5.8061	514.922297265	62.0
5.8163	515.069411421	61.0
5.8266	515.217283659	57.0
5.8368	515.36304579	46.0
5.847	515.508139843	48.0
5.8573	515.653981568	37.0
5.8675	515.79774216	45.0
5.8778	515.942243554	33.0
5.888	516.084682942	47.0
5.8982	516.22646948	33.0
5.9085	516.368986647	50.0
5.9187	516.509470123	32.0
5.929	516.650677513	42.0
5.9392	516.789869902	29.0
5.9494	516.928424323	23.0
5.9597	517.067692718	19.0
5.9699	517.204973781	22.0
5.9802	517.342962256	26.0
5.9904	517.478981663	21.0
6.0006	517.614377646	30.0
6.0109	517.750471327	29.0
6.0211	517.884622978	26.0
6.0314	518.019465916	17.0
6.0416	518.152384671	26.0
6.0518	518.284694214	22.0
6.0621	518.417685551	15.0
6.0723	518.548779127	21.0
6.0826	518.680548232	18.0
6.0928	518.810437017	18.0
6.103	518.939730477	15.0
6.1133	519.069690189	12.0
6.1235	519.197795402	25.0
6.1338	519.326560743	12.0
6.144	519.453488629	15.0
6.1542	519.57983476	9.0
6.1645	519.706831955	9.0
6.1747	519.832016925	9.0
6.185	519.957846977	9.0
6.1952	520.081881458	13.0
6.2054	520.205347446	6.0
6.2157	520.329449657	11.0
6.2259	520.451780954	6.0
6.2362	520.574742627	8.0
6.2464	520.695949661	6.0
6.2566	520.816601162	10.0
6.2669	520.937874381	12.0
6.2771	521.057417057	6.0
6.2874	521.177575738	15.0
6.2976	521.296019778	9.0
6.3078	521.413920948	6.0
6.3181	521.532429666	8.0
6.3283	521.649247287	5.0
6.3386	521.766666873	16.0
6.3488	521.882410904	5.0
6.359	521.997624439	3.0
6.3693	522.113431673	9.0
6.3795	522.227586361	4.0
6.3898	522.34232929	3.0
6.4	522.45543486	8.0
6.4102	522.568022028	7.0
6.4205	522.68118936	2.0
6.4307	522.792741816	7.0
6.441	522.904869105	7.0
6.4512	523.015396359	4.0
6.4614	523.125417029	5.0
6.4717	523.236004638	8.0
6.4819	523.345014183	8.0
6.4922	523.454585457	4.0
6.5024	523.56259317	5.0
6.5126	523.670105847	4.0
6.5229	523.778172539	4.0
6.5331	523.88469714	5.0
6.5434	523.991770665	1.0
6.5536	524.097316272	4.0
6.5638	524.202378126	7.0
6.5741	524.307981367	4.0
6.5843	524.41207767	4.0
6.5946	524.516710384	5.0
6.6048	524.61985001	1.0
6.615	524.722516911	6.0
6.6253	524.825712857	7.0
6.6355	524.927436217	9.0
6.6458	525.029683759	3.0
6.656	525.13047225	6.0
6.6662	525.230798791	4.0
6.6765	525.331642318	1.0
6.6867	525.431046827	3.0
6.697	525.53096357	5.0
6.7072	525.629454521	7.0
6.7174	525.727494054	7.0
6.7277	525.826038786	5.0
6.7379	525.923177305	3.0
6.7482	526.02081638	4.0
6.7584	526.117062165	5.0
6.7686	526.212866822	6.0
6.7789	526.309165163	3.0
6.7891	526.404089345	3.0
6.7994	526.499502674	0.0
6.8096	526.593554474	2.0
6.8198	526.687175201	1.0
6.8301	526.781278358	3.0
6.8403	526.874038681	5.0
6.8506	526.967277001	2.0
6.8608	527.059184828	2.0
6.871	527.15067141	5.0
6.8813	527.242629423	3.0
6.8915	527.333275215	3.0
6.9018	527.424388106	1.0
6.912	527.514200834	5.0
6.9222	527.603601919	1.0
6.9325	527.69346369	2.0
6.9427	527.782043151	7.0
6.953	527.871079064	5.0
6.9632	527.958844452	7.0
6.9734	528.046207581	3.0
6.9837	528.134020893	4.0
6.9939	528.220581128	2.0
7.0042	528.307587409	5.0
7.0144	528.393352127	3.0
7.0246	528.478723756	2.0
7.0349	528.564535307	2.0
7.0451	528.649122344	3.0
7.0554	528.73414526	5.0
7.0656	528.817954916	3.0
7.0758	528.901380443	4.0
7.0861	528.985235864	4.0
7.0963	529.067894684	5.0
7.1066	529.150979447	2.0
7.1168	529.232878606	2.0
7.127	529.314402394	5.0
7.1373	529.396346275	1.0
7.1475	529.477120833	3.0
7.1578	529.558311625	2.0
7.168	529.638343839	7.0
7.1782	529.718009239	1.0
7.1885	529.798085156	1.0
7.1987	529.877018405	5.0
7.209	529.956358399	1.0
7.2192	530.034566227	1.0
7.2294	530.112415602	1.0
7.2397	530.190666136	2.0
7.2499	530.26780005	1.0
7.2602	530.345331437	4.0
7.2704	530.421756466	3.0
7.2806	530.497831213	4.0
7.2909	530.574297975	4.0
7.3011	530.649673571	3.0
7.3114	530.725437579	2.0
7.3216	530.80012045	3.0
7.3318	530.874461024	4.0
7.3421	530.949184675	0.0
7.3523	531.022842036	0.0
7.3626	531.096878954	1.0
7.3728	531.16985938	4.0
7.383	531.242505311	2.0
7.3933	531.315525588	2.0
7.4035	531.387503881	2.0
7.4138	531.459853079	1.0
7.424	531.531169868	1.0
7.4342	531.602159788	2.0
7.4445	531.67351552	1.0
7.4547	531.74385302	4.0
7.465	531.814552971	2.0
7.4752	531.884244047	1.0
7.4854	531.953615705	0.0
7.4957	532.023344837	5.0
7.5059	532.092078948	2.0
7.5162	532.161167247	3.0
7.5264	532.22926967	2.0
7.5366	532.297059955	5.0
7.5469	532.365199566	2.0
7.5571	532.432366838	2.0
7.5674	532.499880224	0.0
7.5776	532.566430207	3.0
7.5878	532.632675169	1.0
7.5981	532.699261492	3.0
7.6083	532.764897642	2.0
7.6186	532.830872016	3.0
7.6288	532.895904949	3.0
7.639	532.960639814	3.0
7.6493	533.025708258	4.0
7.6595	533.089848189	4.0
7.6698	533.154318634	2.0
7.68	533.217869099	4.0
7.6902	533.28112829	3.0
7.7005	533.344713457	1.0
7.7107	533.407391276	4.0
7.721	533.470392075	2.0
7.7312	533.532493865	3.0
7.7414	533.594311022	4.0
7.7517	533.656446723	2.0
7.7619	533.71769576	5.0
7.7722	533.779260415	0.0
7.7824	533.839946554	2.0
7.7926	533.900354548	1.0
7.8029	533.961073825	3.0
7.8131	534.02092665	1.0
7.8234	534.081087899	2.0
7.8336	534.140390658	0.0
7.8438	534.199421612	1.0
7.8541	534.258756753	3.0
