TL-DOS Lehrstuhlversuch
detector=R1408303
job_number=2015-11-03-015
irradiation_dose [mSv]=0.09

[BEGIN DATA]
time [sec] 	 temperature [K] 	 photoncount 
0.0	196.659863612	0.0
0.0102	197.899321252	0.0
0.0205	199.146666977	0.0
0.0307	200.377694838	1.0
0.041	201.616557136	0.0
0.0512	202.839212551	1.0
0.0614	204.057723403	0.0
0.0717	205.283989031	2.0
0.0819	206.494212567	0.0
0.0922	207.712138137	1.0
0.1024	208.914130721	0.0
0.1126	210.112048785	0.0
0.1229	211.317590568	1.0
0.1331	212.507361371	2.0
0.1434	213.704704044	1.0
0.1536	214.886382997	0.0
0.1638	216.06405629	2.0
0.1741	217.249224461	1.0
0.1843	218.418888182	0.0
0.1946	219.595995807	1.0
0.2048	220.75770443	1.0
0.215	221.915475087	0.0
0.2253	223.08061396	1.0
0.2355	224.230510406	1.0
0.2458	225.387724956	0.0
0.256	226.529800746	0.0
0.2662	227.668005121	1.0
0.2765	228.813453191	0.0
0.2867	229.943916429	1.0
0.297	231.081574096	0.0
0.3072	232.204348847	3.0
0.3174	233.32331761	5.0
0.3277	234.449407649	0.0
0.3379	235.5607661	0.0
0.3482	236.679197394	1.0
0.3584	237.782997293	2.0
0.3686	238.883055526	5.0
0.3789	239.990114684	1.0
0.3891	241.082691219	0.0
0.3994	242.182221065	1.0
0.4096	243.267366786	2.0
0.4198	244.348834075	2.0
0.4301	245.437183975	1.0
0.4403	246.511296006	2.0
0.4506	247.592243838	1.0
0.4608	248.659050637	0.0
0.471	249.722241168	3.0
0.4813	250.792197994	1.0
0.4915	251.848157572	1.0
0.5018	252.910837425	2.0
0.512	253.959615228	4.0
0.5222	255.004837878	5.0
0.5325	256.056712474	0.0
0.5427	257.094826373	2.0
0.553	258.139546977	6.0
0.5632	259.170600473	1.0
0.5734	260.198158899	0.0
0.5837	261.232256852	3.0
0.5939	262.252826665	0.0
0.6042	263.279891529	1.0
0.6144	264.293520259	2.0
0.6246	265.303712985	1.0
0.6349	266.320334721	3.0
0.6451	267.323656942	4.0
0.6554	268.333364447	1.0
0.6656	269.329862889	2.0
0.6758	270.322983395	2.0
0.6861	271.322424261	1.0
0.6963	272.308790373	0.0
0.7066	273.301433859	0.0
0.7168	274.281091514	1.0
0.727	275.25742832	1.0
0.7373	276.239978672	2.0
0.7475	277.209675233	3.0
0.7578	278.18554308	2.0
0.768	279.148644557	2.0
0.7782	280.108481307	1.0
0.7885	281.074426594	2.0
0.7987	282.027735319	4.0
0.809	282.987111035	0.0
0.8192	283.933936132	2.0
0.8294	284.877551677	1.0
0.8397	285.827172524	2.0
0.8499	286.764370367	1.0
0.8602	287.707532669	2.0
0.8704	288.638356456	2.0
0.8806	289.566024933	2.0
0.8909	290.499597223	0.0
0.9011	291.420956456	2.0
0.9114	292.34817935	3.0
0.9216	293.26327225	0.0
0.9318	294.175263164	1.0
0.9421	295.093058116	1.0
0.9523	295.998846412	2.0
0.9626	296.910399273	1.0
0.9728	297.810027137	3.0
0.983	298.706605438	1.0
0.9933	299.608889689	1.0
1.0035	300.499370196	0.0
1.0138	301.395517848	1.0
1.024	302.279942034	3.0
1.0342	303.161368194	1.0
1.0445	304.048403875	4.0
1.0547	304.923835294	0.0
1.065	305.804838083	1.0
1.0752	306.674315533	0.0
1.0854	307.540845623	0.0
1.0957	308.412890434	2.0
1.1059	309.273527095	0.0
1.1162	310.139640969	2.0
1.1264	310.994424281	1.0
1.1366	311.846310045	0.0
1.1469	312.703617331	2.0
1.1571	313.549709263	0.0
1.1674	314.401185845	3.0
1.1776	315.241523351	2.0
1.1878	316.079012277	1.0
1.1981	316.921831101	1.0
1.2083	317.753624111	1.0
1.2186	318.590710769	2.0
1.2288	319.416846603	1.0
1.239	320.240181996	4.0
1.2493	321.068757213	0.0
1.2595	321.886492952	1.0
1.2698	322.709432877	4.0
1.28	323.521607045	5.0
1.2902	324.331028101	4.0
1.3005	325.145600427	3.0
1.3107	325.949516462	1.0
1.321	326.758548732	0.0
1.3312	327.556997187	2.0
1.3414	328.352739057	0.0
1.3517	329.15354514	2.0
1.3619	329.943875024	1.0
1.3722	330.739234679	3.0
1.3824	331.524189384	3.0
1.3926	332.306483245	4.0
1.4029	333.093755735	2.0
1.4131	333.870729073	3.0
1.4234	334.652647179	3.0
1.4336	335.424336178	2.0
1.4438	336.193409302	2.0
1.4541	336.967376916	2.0
1.4643	337.731219433	3.0
1.4746	338.499923152	3.0
1.4848	339.258570635	0.0
1.495	340.014646452	3.0
1.5053	340.775534042	3.0
1.5155	341.526467648	5.0
1.5258	342.282180302	3.0
1.536	343.028006671	3.0
1.5462	343.771304834	3.0
1.5565	344.519333452	3.0
1.5667	345.257576308	5.0
1.577	346.000517446	4.0
1.5872	346.733739377	5.0
1.5974	347.464475828	5.0
1.6077	348.19986279	6.0
1.6179	348.925629369	4.0
1.6282	349.656014829	2.0
1.6384	350.376845336	3.0
1.6486	351.095232368	3.0
1.6589	351.818191317	4.0
1.6691	352.531692468	4.0
1.6794	353.24973444	5.0
1.6896	353.958382938	8.0
1.6998	354.664629256	4.0
1.7101	355.375370226	6.0
1.7203	356.076813233	2.0
1.7306	356.782720322	11.0
1.7408	357.479392687	4.0
1.751	358.173703468	7.0
1.7613	358.872432941	5.0
1.7715	359.562021587	6.0
1.7818	360.255998873	5.0
1.792	360.9408975	5.0
1.8022	361.623474455	4.0
1.8125	362.310395426	5.0
1.8227	362.988330049	3.0
1.833	363.670579144	5.0
1.8432	364.34390301	3.0
1.8534	365.014944439	4.0
1.8637	365.69025647	4.0
1.8739	366.356734024	6.0
1.8842	367.027453134	8.0
1.8944	367.689397851	6.0
1.9046	368.349098705	9.0
1.9149	369.012997988	7.0
1.9251	369.668212095	5.0
1.9354	370.327596077	11.0
1.9456	370.978353953	9.0
1.9558	371.626905886	8.0
1.9661	372.279585296	6.0
1.9763	372.923726309	10.0
1.9866	373.571966726	8.0
1.9968	374.211726818	7.0
2.007	374.849318247	7.0
2.0173	375.490967399	6.0
2.0275	376.124222452	12.0
2.0378	376.76150763	12.0
2.048	377.3904558	17.0
2.0582	378.017271957	5.0
2.0685	378.648077262	9.0
2.0787	379.270630328	12.0
2.089	379.89714541	2.0
2.0992	380.515464379	7.0
2.1094	381.131687367	10.0
2.1197	381.751832085	16.0
2.1299	382.363864027	11.0
2.1402	382.979791027	13.0
2.1504	383.587660428	10.0
2.1606	384.19346927	9.0
2.1709	384.803133565	9.0
2.1811	385.40482219	12.0
2.1914	386.010340047	13.0
2.2016	386.607936477	7.0
2.2118	387.203507172	16.0
2.2221	387.802868163	19.0
2.2323	388.394388272	13.0
2.2426	388.989672899	19.0
2.2528	389.577169972	15.0
2.263	390.162675544	11.0
2.2733	390.751907356	21.0
2.2835	391.333430797	16.0
2.2938	391.918655136	21.0
2.304	392.49622353	11.0
2.3142	393.071834079	20.0
2.3245	393.651107895	9.0
2.3347	394.222803612	16.0
2.345	394.798137681	15.0
2.3552	395.36594519	17.0
2.3654	395.931827942	18.0
2.3757	396.501312052	18.0
2.3859	397.063346132	21.0
2.3962	397.628957076	20.0
2.4064	398.187168659	14.0
2.4166	398.743488014	17.0
2.4269	399.303347864	23.0
2.4371	399.855883588	28.0
2.4474	400.411935728	24.0
2.4576	400.960713556	28.0
2.4678	401.507631134	19.0
2.4781	402.058029373	18.0
2.4883	402.601227264	24.0
2.4986	403.147882144	19.0
2.5088	403.687385646	24.0
2.519	404.225060337	16.0
2.5293	404.766156866	20.0
2.5395	405.300174733	25.0
2.5498	405.837591165	18.0
2.56	406.367977078	23.0
2.5702	406.896565087	25.0
2.5805	407.428517104	15.0
2.5907	407.953510089	20.0
2.601	408.481844203	16.0
2.6112	409.003266614	15.0
2.6214	409.522921504	22.0
2.6317	410.045883552	19.0
2.6419	410.562004174	21.0
2.6522	411.081409462	17.0
2.6624	411.594019853	20.0
2.6726	412.104892595	20.0
2.6829	412.619016603	26.0
2.6931	413.126414806	18.0
2.7034	413.637042163	15.0
2.7136	414.140989458	18.0
2.7238	414.643228469	14.0
2.7341	415.148663801	21.0
2.7443	415.647486993	10.0
2.7546	416.149484766	13.0
2.7648	416.64491537	13.0
2.775	417.13866656	15.0
2.7853	417.635560054	13.0
2.7955	418.125953152	12.0
2.8058	418.619467181	13.0
2.816	419.106525026	17.0
2.8262	419.59193184	17.0
2.8365	420.080427851	10.0
2.8467	420.562533324	13.0
2.857	421.047706985	11.0
2.8672	421.52653357	14.0
2.8774	422.003737026	16.0
2.8877	422.483977473	12.0
2.8979	422.957935381	7.0
2.9082	423.434909624	22.0
2.9184	423.905644058	9.0
2.9286	424.374782793	18.0
2.9389	424.846907194	16.0
2.9491	425.312855231	12.0
2.9594	425.781768628	13.0
2.9696	426.244547666	10.0
2.9798	426.705757975	20.0
2.9901	427.169903491	7.0
3.0003	427.627977023	9.0
3.0106	428.0889658	13.0
3.0208	428.54392389	14.0
3.031	428.997339761	6.0
3.0413	429.453641235	10.0
3.0515	429.903973341	15.0
3.0618	430.357171425	22.0
3.072	430.80444074	16.0
3.0822	431.250193899	17.0
3.0925	431.698783895	21.0
3.1027	432.141505405	15.0
3.113	432.587044458	16.0
3.1232	433.026754938	12.0
3.1334	433.464974886	22.0
3.1437	433.905983727	21.0
3.1539	434.34122326	10.0
3.1642	434.779232719	22.0
3.1744	435.211512108	20.0
3.1846	435.642326155	17.0
3.1949	436.075881963	16.0
3.2051	436.503765964	17.0
3.2154	436.934373079	26.0
3.2256	437.359346963	15.0
3.2358	437.782880268	11.0
3.2461	438.209108998	25.0
3.2563	438.629761776	19.0
3.2666	439.053091647	18.0
3.2768	439.470883487	14.0
3.287	439.887259095	14.0
3.2973	440.306284576	28.0
3.3075	440.719828336	15.0
3.3178	441.136003948	21.0
3.328	441.546735122	11.0
3.3382	441.956073997	23.0
3.3485	442.368017963	21.0
3.3587	442.774572849	30.0
3.369	443.183715108	30.0
3.3792	443.58750494	20.0
3.3894	443.989926003	23.0
3.3997	444.394908131	19.0
3.4099	444.794592255	25.0
3.4202	445.196820025	17.0
3.4304	445.593785824	23.0
3.4406	445.989405986	20.0
3.4509	446.38754393	21.0
3.4611	446.780473407	21.0
3.4714	447.175903543	23.0
3.4816	447.566160634	19.0
3.4918	447.95509483	31.0
3.5021	448.346504258	23.0
3.5123	448.732793241	19.0
3.5226	449.121540622	18.0
3.5328	449.505202383	23.0
3.543	449.887563605	20.0
3.5533	450.272358228	18.0
3.5635	450.652118942	18.0
3.5738	451.034296506	22.0
3.584	451.411474397	19.0
3.5942	451.787373729	17.0
3.6045	452.165665337	22.0
3.6147	452.539008108	15.0
3.625	452.914726886	25.0
3.6352	453.285530485	17.0
3.6454	453.655077131	18.0
3.6557	454.026975625	10.0
3.6659	454.394008918	13.0
3.6762	454.763378062	13.0
3.6864	455.127915093	13.0
3.6966	455.491216415	10.0
3.7069	455.856829838	16.0
3.7171	456.217660281	19.0
3.7274	456.580787101	22.0
3.7376	456.93916347	19.0
3.7478	457.296325013	14.0
3.7581	457.655759582	13.0
3.7683	458.010492004	17.0
3.7786	458.367481993	14.0
3.7888	458.719801815	17.0
3.799	459.070927341	14.0
3.8093	459.42428748	10.0
3.8195	459.773024937	21.0
3.8298	460.123981808	17.0
3.84	460.470347438	12.0
3.8502	460.815538956	8.0
3.8605	461.162927321	17.0
3.8707	461.505771128	15.0
3.881	461.850796841	16.0
3.8912	462.191308904	15.0
3.9014	462.530666698	8.0
3.9117	462.872184213	14.0
3.9219	463.209233972	18.0
3.9322	463.548428763	8.0
3.9424	463.883186185	16.0
3.9526	464.216808845	17.0
3.9629	464.552554726	18.0
3.9731	464.883908356	13.0
3.9834	465.217370768	15.0
3.9936	465.546470802	13.0
4.0038	465.874455251	9.0
4.0141	466.204527039	16.0
4.0243	466.530280806	17.0
4.0346	466.858107715	13.0
4.0448	467.18164597	15.0
4.055	467.504087494	10.0
4.0653	467.828581081	15.0
4.0755	468.148829621	13.0
4.0858	468.471116268	11.0
4.096	468.789186738	13.0
4.1062	469.106179012	16.0
4.1165	469.42518867	7.0
4.1267	469.740025021	13.0
4.137	470.056865035	18.0
4.1472	470.369560126	10.0
4.1574	470.681195242	13.0
4.1677	470.994813648	14.0
4.1779	471.304329277	18.0
4.1882	471.615814707	18.0
4.1984	471.923225262	12.0
4.2086	472.229593756	14.0
4.2189	472.537912023	12.0
4.2291	472.842196849	7.0
4.2394	473.148418186	16.0
4.2496	473.450633515	13.0
4.2598	473.751824392	19.0
4.2701	474.054932092	15.0
4.2803	474.354074515	9.0
4.2906	474.655120723	24.0
4.3008	474.952228624	13.0
4.311	475.248329387	17.0
4.3213	475.546314577	18.0
4.3315	475.840401504	20.0
4.3418	476.136360042	19.0
4.352	476.428446831	11.0
4.3622	476.719543502	13.0
4.3725	477.012492753	12.0
4.3827	477.301609622	11.0
4.393	477.592566472	7.0
4.4032	477.879717004	11.0
4.4134	478.165894152	14.0
4.4237	478.453892572	20.0
4.4339	478.738123377	11.0
4.4442	479.024163066	14.0
4.4544	479.306460765	15.0
4.4646	479.58780153	10.0
4.4749	479.870932787	11.0
4.4851	480.150360101	9.0
4.4954	480.431565731	13.0
4.5056	480.709092609	8.0
4.5158	480.985678725	10.0
4.5261	481.264025074	17.0
4.5363	481.538730078	13.0
4.5466	481.815183342	8.0
4.5568	482.088020026	12.0
4.567	482.359931847	9.0
4.5773	482.633574153	13.0
4.5875	482.903636652	14.0
4.5978	483.175417867	17.0
4.608	483.443643621	11.0
4.6182	483.710960142	13.0
4.6285	483.979977903	10.0
4.6387	484.245476356	14.0
4.649	484.512664478	8.0
4.6592	484.776357227	10.0
4.6694	485.039156109	10.0
4.6797	485.30362748	14.0
4.6899	485.564639018	14.0
4.7002	485.827311671	9.0
4.7104	486.086548022	14.0
4.7206	486.344905612	10.0
4.7309	486.604907427	12.0
4.7411	486.86150788	19.0
4.7514	487.119741374	12.0
4.7616	487.37459664	18.0
4.7718	487.628587997	9.0
4.7821	487.88419579	11.0
4.7923	488.136459705	10.0
4.8026	488.390329063	10.0
4.8128	488.640877285	5.0
4.823	488.890576197	16.0
4.8333	489.141864228	9.0
4.8435	489.389864892	8.0
4.8538	489.639443867	19.0
4.864	489.885757833	13.0
4.8742	490.131236842	9.0
4.8845	490.378278115	14.0
4.8947	490.622087577	7.0
4.905	490.867448676	15.0
4.9152	491.109599945	9.0
4.9254	491.350930369	9.0
4.9357	491.593796653	6.0
4.9459	491.833485744	11.0
4.9562	492.07470025	5.0
4.9664	492.312759171	11.0
4.9766	492.550011119	8.0
4.9869	492.788772972	5.0
4.9971	493.024411326	9.0
5.0074	493.261549316	11.0
5.0176	493.49558505	14.0
5.0278	493.728827449	11.0
5.0381	493.963554236	10.0
5.0483	494.19521031	13.0
5.0586	494.428340677	10.0
5.0688	494.658421216	11.0
5.079	494.887721827	9.0
5.0893	495.118481739	10.0
5.0995	495.346222834	14.0
5.1098	495.575413306	9.0
5.12	495.801605493	13.0
5.1302	496.027030932	11.0
5.1405	496.25389101	8.0
5.1507	496.477783289	15.0
5.161	496.703100451	10.0
5.1712	496.925469997	12.0
5.1814	497.147085755	10.0
5.1917	497.370111906	10.0
5.2019	497.590220414	20.0
5.2122	497.811729724	13.0
5.2224	498.030341233	11.0
5.2326	498.248211693	11.0
5.2429	498.46746871	11.0
5.2531	498.683857392	10.0
5.2634	498.901623203	11.0
5.2736	499.116540186	10.0
5.2838	499.330728643	11.0
5.2941	499.546280225	16.0
5.3043	499.759011946	7.0
5.3146	499.973097522	8.0
5.3248	500.184382416	8.0
5.335	500.394951096	5.0
5.3453	500.606859864	7.0
5.3555	500.815996427	9.0
5.3658	501.026463965	11.0
5.376	501.234178152	11.0
5.3862	501.441188229	10.0
5.3965	501.649515747	9.0
5.4067	501.85511791	9.0
5.417	502.062028554	12.0
5.4272	502.266232379	8.0
5.4374	502.469743993	12.0
5.4477	502.674550783	13.0
5.4579	502.876678277	10.0
5.4682	503.080092139	10.0
5.4784	503.280844927	7.0
5.4886	503.480917202	10.0
5.4989	503.682262765	8.0
5.5091	503.880974312	7.0
5.5194	504.080950487	8.0
5.5296	504.27831056	13.0
5.5398	504.475001621	7.0
5.5501	504.672944452	7.0
5.5603	504.868297781	6.0
5.5706	505.064894366	6.0
5.5808	505.258919061	8.0
5.591	505.45228605	6.0
5.6013	505.646883655	12.0
5.6115	505.838935519	4.0
5.6218	506.03220963	11.0
5.632	506.222955314	10.0
5.6422	506.413054409	7.0
5.6525	506.60436332	6.0
5.6627	506.793169516	5.0
5.673	506.983177301	6.0
5.6832	507.170699391	6.0
5.6934	507.357585817	2.0
5.7037	507.545661615	2.0
5.7139	507.731276993	7.0
5.7242	507.918073653	5.0
5.7344	508.102426627	6.0
5.7446	508.286154679	10.0
5.7549	508.471052003	5.0
5.7651	508.653530488	6.0
5.7754	508.837170292	6.0
5.7856	509.018407707	6.0
5.7958	509.199030762	8.0
5.8061	509.380803328	8.0
5.8163	509.560197933	8.0
5.8266	509.740734231	6.0
5.8368	509.91890874	9.0
5.847	510.096479272	4.0
5.8573	510.275179889	9.0
5.8675	510.451542732	4.0
5.8778	510.629027972	3.0
5.888	510.804191339	2.0
5.8982	510.978760936	5.0
5.9085	511.154441519	2.0
5.9187	511.327823836	2.0
5.929	511.502309583	4.0
5.9392	511.674512695	4.0
5.9494	511.846132072	3.0
5.9597	512.018843659	3.0
5.9699	512.189295822	1.0
5.9802	512.360832766	4.0
5.9904	512.530125652	2.0
6.0006	512.698844668	6.0
6.0109	512.868637435	5.0
6.0211	513.036208962	6.0
6.0314	513.204846939	5.0
6.0416	513.371278781	4.0
6.0518	513.537146452	5.0
6.0621	513.704069728	4.0
6.0723	513.868809302	2.0
6.0826	514.034597303	2.0
6.0928	514.198216453	0.0
6.103	514.361280967	5.0
6.1133	514.525383246	2.0
6.1235	514.687338727	0.0
6.1338	514.850324917	2.0
6.144	515.011178909	2.0
6.1542	515.171487638	3.0
6.1645	515.332816595	2.0
6.1747	515.492035035	0.0
6.185	515.652266764	8.0
6.1952	515.81040233	1.0
6.2054	515.968001847	1.0
6.2157	516.12660435	3.0
6.2259	516.283132005	2.0
6.2362	516.440655823	2.0
6.2464	516.596118904	4.0
6.2566	516.751054995	0.0
6.2669	516.906977122	1.0
6.2771	517.060859465	4.0
6.2874	517.215721136	1.0
6.2976	517.368556897	0.0
6.3078	517.520874574	2.0
6.3181	517.674161623	1.0
6.3283	517.825443359	2.0
6.3386	517.977687874	1.0
6.3488	518.127940716	0.0
6.359	518.27768423	0.0
6.3693	518.428380733	0.0
6.3795	518.577105814	3.0
6.3898	518.726777402	1.0
6.4	518.874490977	3.0
6.4102	519.021703831	1.0
6.4205	519.169853569	1.0
6.4307	519.316065201	2.0
6.441	519.463207345	2.0
6.4512	519.608424566	0.0
6.4614	519.753149528	0.0
6.4717	519.89879554	3.0
6.4819	520.042536202	2.0
6.4922	520.187191649	0.0
6.5024	520.329954704	2.0
6.5126	520.472233819	2.0
6.5229	520.61541842	0.0
6.5331	520.756729869	1.0
6.5434	520.898940644	2.0
6.5536	521.039291009	1.0
6.5638	521.179165613	2.0
6.5741	521.319930398	0.0
6.5843	521.45885369	0.0
6.5946	521.598661108	0.0
6.6048	521.736639557	2.0
6.615	521.874150285	0.0
6.6253	522.012536151	0.0
6.6355	522.149111644	1.0
6.6458	522.286556322	0.0
6.656	522.42220294	1.0
6.6662	522.557389742	2.0
6.6765	522.693436892	2.0
6.6867	522.827704263	1.0
6.697	522.962826132	0.0
6.7072	523.096180327	0.0
6.7174	523.229082477	0.0
6.7277	523.362830435	4.0
6.7379	523.494828693	1.0
6.7482	523.627667007	1.0
6.7584	523.75876752	1.0
6.7686	523.889423629	1.0
6.7789	524.020911252	0.0
6.7891	524.150678744	1.0
6.7994	524.281272095	2.0
6.8096	524.410157015	0.0
6.8198	524.53860504	1.0
6.8301	524.667870527	1.0
6.8403	524.795444954	1.0
6.8506	524.923831282	0.0
6.8608	525.050538051	1.0
6.871	525.17681531	0.0
6.8813	525.303896214	1.0
6.8915	525.429314638	0.0
6.9018	525.555531242	0.0
6.912	525.680096672	0.0
6.9222	525.804239849	0.0
6.9325	525.929173091	1.0
6.9427	526.052471948	2.0
6.953	526.176555496	1.0
6.9632	526.299015775	2.0
6.9734	526.421060937	1.0
6.9837	526.543882811	0.0
6.9939	526.665097922	0.0
7.0042	526.787084463	0.0
7.0144	526.907475167	2.0
7.0246	527.027457771	0.0
7.0349	527.14820396	0.0
7.0451	527.26737054	1.0
7.0554	527.387295513	3.0
7.0656	527.505651619	0.0
7.0758	527.62360652	0.0
7.0861	527.742312104	0.0
7.0963	527.859464773	3.0
7.1066	527.977363018	0.0
7.1168	528.09371891	1.0
7.127	528.209680378	0.0
7.1373	528.326379842	0.0
7.1475	528.441552635	0.0
7.1578	528.557458404	0.0
7.168	528.671847886	3.0
7.1782	528.785849609	2.0
7.1885	528.900576856	0.0
7.1987	529.013803233	1.0
7.209	529.127750199	0.0
7.2192	529.240206503	0.0
7.2294	529.352281602	0.0
7.2397	529.465069962	0.0
7.2499	529.576382818	0.0
7.2602	529.688404084	1.0
7.2704	529.79895988	1.0
7.2806	529.909140914	0.0
7.2909	530.020023156	0.0
7.3011	530.129454828	0.0
7.3114	530.239582939	1.0
7.3216	530.348270346	0.0
7.3318	530.456589325	1.0
7.3421	530.56559766	0.0
7.3523	530.673179942	0.0
7.3626	530.781446892	0.0
7.3728	530.888297486	0.0
7.383	530.994785877	0.0
7.3933	531.101951976	1.0
7.4035	531.207716121	1.0
7.4138	531.314153363	0.0
7.424	531.419198186	1.0
7.4342	531.523886928	1.0
7.4445	531.629241924	1.0
7.4547	531.733218658	2.0
7.465	531.837857115	0.0
7.4752	531.941126685	0.0
7.4854	532.04404619	1.0
7.4957	532.147620691	0.0
7.5059	532.249840222	0.0
7.5162	532.352710293	0.0
7.5264	532.45423461	0.0
7.5366	532.55541478	0.0
7.5469	532.657238875	3.0
7.5571	532.7577309	3.0
7.5674	532.858862471	1.0
7.5776	532.958671031	1.0
7.5878	533.05814126	1.0
7.5981	533.158244531	0.0
7.6083	533.257038245	1.0
7.6186	533.356460696	0.0
7.6288	533.454582495	0.0
7.639	533.552371681	0.0
7.6493	533.65078321	1.0
7.6595	533.747907314	0.0
7.6698	533.845649529	0.0
7.68	533.942113073	0.0
7.6902	534.038249625	0.0
7.7005	534.134998004	0.0
7.7107	534.230480713	1.0
7.721	534.326571089	1.0
7.7312	534.421404403	0.0
7.7414	534.515916251	1.0
7.7517	534.611029585	3.0
7.7619	534.70489864	0.0
7.7722	534.799365092	1.0
7.7824	534.892595726	1.0
7.7926	534.985510327	0.0
7.8029	535.07901625	1.0
7.8131	535.171298922	0.0
7.8234	535.264168894	0.0
7.8336	535.355823934	1.0
7.8438	535.447168282	0.0
7.8541	535.539093958	1.0
7.8643	535.629817056	0.0
7.8746	535.721117528	0.0
7.8848	535.811223602	0.0
7.895	535.901024233	1.0
7.9053	535.991396369	0.0
7.9155	536.08058625	1.0
7.9258	536.170343748	0.0
7.936	536.258927032	0.0
7.9462	536.347210036	0.0
7.9565	536.436054886	0.0
7.9667	536.523737461	2.0
7.977	536.611978061	0.0
7.9872	536.699064291	1.0
7.9974	536.785855316	2.0
8.0077	536.873198691	0.0
8.0179	536.959399434	0.0
8.0282	537.04614877	0.0
8.0384	537.131763246	0.0
8.0486	537.217087506	1.0
8.0589	537.302954781	0.0
8.0691	537.387698735	0.0
