TL-DOS Lehrstuhlversuch
detector=R1408305
job_number=2015-11-02-008
irradiation_dose [mSv]=0.2

[BEGIN DATA]
time [sec] 	 temperature [K] 	 photoncount 
0.0	68.5684614993	0.0
0.0102	70.8413061575	0.0
0.0205	73.125395547	0.0
0.0307	75.3764309029	0.0
0.041	77.6386030901	0.0
0.0512	79.8680384169	2.0
0.0614	82.0868037563	0.0
0.0717	84.3165462735	1.0
0.0819	86.5140212339	0.0
0.0922	88.7223680395	0.0
0.1024	90.8987569148	3.0
0.1126	93.0647296809	0.0
0.1229	95.2414184374	1.0
0.1331	97.3866074008	0.0
0.1434	99.5424095283	0.0
0.1536	101.667014122	0.0
0.1638	103.781450444	1.0
0.1741	105.906347783	1.0
0.1843	108.000494826	0.0
0.1946	110.105002506	1.0
0.2048	112.179054956	1.0
0.215	114.243181075	3.0
0.2253	116.317519305	1.0
0.2355	118.361838901	1.0
0.2458	120.416272617	1.0
0.256	122.440975745	0.0
0.2662	124.455988725	0.0
0.2765	126.480970834	0.0
0.2867	128.476648561	0.0
0.297	130.482199756	0.0
0.3072	132.458727763	0.0
0.3174	134.425796187	0.0
0.3277	136.402596536	0.0
0.3379	138.350789764	0.0
0.3482	140.308621533	0.0
0.3584	142.238120682	0.0
0.3686	144.158385326	0.0
0.3789	146.088150338	0.0
0.3891	147.989988896	0.0
0.3994	149.901236659	0.0
0.4096	151.78482594	0.0
0.4198	153.659400438	0.0
0.4301	155.543249255	0.0
0.4403	157.399836091	0.0
0.4506	159.265608254	0.0
0.4608	161.10438003	1.0
0.471	162.934351518	0.0
0.4813	164.773376656	0.0
0.4915	166.585788475	0.0
0.5018	168.407167068	0.0
0.512	170.202187713	0.0
0.5222	171.988617461	0.0
0.5325	173.783885439	0.0
0.5427	175.553173327	0.0
0.553	177.331214636	0.0
0.5632	179.083525149	0.0
0.5734	180.827449176	0.0
0.5837	182.580001137	0.0
0.5939	184.30719117	0.0
0.6042	186.042926349	0.0
0.6144	187.753542962	0.0
0.6246	189.455972633	0.0
0.6349	191.166824949	0.0
0.6451	192.85291879	0.0
0.6554	194.547354457	1.0
0.6656	196.21726922	0.0
0.6758	197.879191839	0.0
0.6861	199.549336697	0.0
0.6963	201.195312176	1.0
0.7066	202.849430997	0.0
0.7168	204.479612357	0.0
0.727	206.101991735	0.0
0.7373	207.732397716	0.0
0.7475	209.339209395	0.0
0.7578	210.953970656	0.0
0.768	212.545364017	0.0
0.7782	214.129141033	0.0
0.7885	215.72075367	0.0
0.7987	217.289333399	0.0
0.809	218.865673562	0.0
0.8192	220.419201832	1.0
0.8294	221.965294979	0.0
0.8397	223.519037307	0.0
0.8499	225.050294766	0.0
0.8602	226.589128009	0.0
0.8704	228.105692138	0.0
0.8806	229.614998052	1.0
0.8909	231.131771147	0.0
0.9011	232.626594369	0.0
0.9114	234.128813119	0.0
0.9216	235.60929262	1.0
0.9318	237.082686605	0.0
0.9421	238.563370099	0.0
0.9523	240.022625989	0.0
0.9626	241.48910144	0.0
0.9728	242.934354898	0.0
0.983	244.372691431	1.0
0.9933	245.818144028	0.0
1.0035	247.242678863	0.0
1.0138	248.674261479	0.0
1.024	250.085127051	1.0
1.0342	251.489240278	1.0
1.0445	252.900300251	0.0
1.0547	254.290940172	0.0
1.065	255.688460181	0.0
1.0752	257.065756082	0.0
1.0854	258.4364603	0.0
1.0957	259.813945975	0.0
1.1059	261.171497467	0.0
1.1162	262.535765345	0.0
1.1264	263.880290319	0.0
1.1366	265.218380452	0.0
1.1469	266.563090686	1.0
1.1571	267.888341044	1.0
1.1674	269.22014798	0.0
1.1776	270.532681769	2.0
1.1878	271.838933824	0.0
1.1981	273.151648465	1.0
1.2083	274.445366252	0.0
1.2186	275.745484611	1.0
1.2288	277.026788403	0.0
1.239	278.301959926	1.0
1.2493	279.583440266	1.0
1.2595	280.846375756	1.0
1.2698	282.115559527	0.0
1.28	283.366376397	0.0
1.2902	284.611206908	1.0
1.3005	285.862196126	0.0
1.3107	287.095081745	0.0
1.321	288.334066974	0.0
1.3312	289.555122318	0.0
1.3414	290.770333741	0.0
1.3517	291.991557333	2.0
1.3619	293.195108076	0.0
1.3722	294.404613298	1.0
1.3824	295.596615253	1.0
1.3926	296.782912335	0.0
1.4029	297.975078534	0.0
1.4131	299.149992386	0.0
1.4234	300.330719038	1.0
1.4336	301.49435889	1.0
1.4438	302.652429609	1.0
1.4541	303.816229797	0.0
1.4643	304.963188136	0.0
1.4746	306.115820966	2.0
1.4848	307.251773554	0.0
1.495	308.382289518	0.0
1.5053	309.518398627	0.0
1.5155	310.638066616	0.0
1.5258	311.763274079	1.0
1.536	312.872198185	2.0
1.5462	313.975815024	0.0
1.5565	315.084891926	1.0
1.5667	316.177918903	2.0
1.577	317.276353549	0.0
1.5872	318.358892279	0.0
1.5974	319.436250022	0.0
1.6077	320.518937913	2.0
1.6179	321.585957765	1.0
1.6282	322.658256618	0.0
1.6384	323.715037777	2.0
1.6486	324.766761224	0.0
1.6589	325.823687995	2.0
1.6691	326.865319527	1.0
1.6794	327.912104455	2.0
1.6896	328.94374091	2.0
1.6998	329.970439995	2.0
1.7101	331.002218597	2.0
1.7203	332.019065891	2.0
1.7306	333.040943962	1.0
1.7408	334.048033998	4.0
1.751	335.050304142	0.0
1.7613	336.057532944	1.0
1.7715	337.050185708	0.0
1.7818	338.047749547	1.0
1.792	339.030877214	0.0
1.8022	340.009299672	0.0
1.8125	340.992562803	3.0
1.8227	341.961596713	0.0
1.833	342.935424846	3.0
1.8432	343.895160297	2.0
1.8534	344.850302492	3.0
1.8637	345.810170183	2.0
1.8739	346.756147218	5.0
1.8842	347.706804405	5.0
1.8944	348.643704226	3.0
1.9046	349.576120082	3.0
1.9149	350.513148996	3.0
1.9251	351.436617765	2.0
1.9354	352.364655327	5.0
1.9456	353.279262861	4.0
1.9558	354.189493121	1.0
1.9661	355.104226677	4.0
1.9763	356.005722734	3.0
1.9866	356.911678875	5.0
1.9968	357.804524538	7.0
2.007	358.693097078	2.0
2.0173	359.586065765	6.0
2.0275	360.46611192	9.0
2.0378	361.350512039	4.0
2.048	362.222113626	9.0
2.0582	363.089543763	6.0
2.0685	363.961265446	12.0
2.0787	364.820372072	15.0
2.089	365.683729065	3.0
2.0992	366.53459205	11.0
2.1094	367.38138284	2.0
2.1197	368.232363064	12.0
2.1299	369.071028389	11.0
2.1402	369.91384295	11.0
2.1504	370.744460781	13.0
2.1606	371.571103308	8.0
2.1709	372.401835588	11.0
2.1811	373.220545987	12.0
2.1914	374.043306895	14.0
2.2016	374.854161278	14.0
2.2118	375.661134945	12.0
2.2221	376.472101054	11.0
2.2323	377.271331327	14.0
2.2426	378.074515732	13.0
2.2528	378.866076912	15.0
2.263	379.653849713	15.0
2.2733	380.445519961	26.0
2.2835	381.225733611	25.0
2.2938	382.00980731	19.0
2.304	382.782534344	19.0
2.3142	383.551563138	18.0
2.3245	384.324396644	17.0
2.3347	385.086046147	19.0
2.345	385.851463854	18.0
2.3552	386.605804875	23.0
2.3654	387.35653565	26.0
2.3757	388.11098061	20.0
2.3859	388.854507675	16.0
2.3962	389.601713285	27.0
2.4064	390.338105764	20.0
2.4166	391.070973897	22.0
2.4269	391.807467842	27.0
2.4371	392.533303668	31.0
2.4474	393.262730513	35.0
2.4576	393.981601511	37.0
2.4678	394.697032021	26.0
2.4781	395.416002071	33.0
2.4883	396.124567598	28.0
2.4986	396.836638701	28.0
2.5088	397.538405118	27.0
2.519	398.23681291	28.0
2.5293	398.938676023	36.0
2.5395	399.630382175	31.0
2.5498	400.325510492	37.0
2.56	401.01057931	40.0
2.5702	401.692369416	49.0
2.5805	402.377532628	35.0
2.5907	403.052780551	32.0
2.601	403.731369213	23.0
2.6112	404.400137729	34.0
2.6214	405.065705546	31.0
2.6317	405.73456621	37.0
2.6419	406.393747506	40.0
2.6522	407.056190052	30.0
2.6624	407.70904611	28.0
2.6726	408.358777624	33.0
2.6829	409.011723638	24.0
2.6931	409.65522059	31.0
2.7034	410.301901196	33.0
2.7136	410.939223411	25.0
2.7238	411.573495428	30.0
2.7341	412.210905458	38.0
2.7443	412.839091256	30.0
2.7546	413.470384956	18.0
2.7648	414.092542936	33.0
2.775	414.711723293	32.0
2.7853	415.333966998	16.0
2.7955	415.94720595	25.0
2.8058	416.563478855	29.0
2.816	417.170833412	19.0
2.8262	417.775281195	12.0
2.8365	418.382719438	21.0
2.8467	418.981367184	26.0
2.857	419.582976694	24.0
2.8672	420.175880057	20.0
2.8774	420.765945807	20.0
2.8877	421.358930865	23.0
2.8979	421.943334582	22.0
2.9082	422.530629594	17.0
2.9184	423.109425609	16.0
2.9286	423.685451529	19.0
2.9389	424.264327295	17.0
2.9491	424.834825902	15.0
2.9594	425.408147009	17.0
2.9696	425.973171342	23.0
2.9798	426.53549149	17.0
2.9901	427.100593677	18.0
3.0003	427.657518028	10.0
3.0106	428.217197721	16.0
3.0208	428.76877805	14.0
3.031	429.317718538	21.0
3.0413	429.869374869	22.0
3.0515	430.413047945	14.0
3.0618	430.959410803	25.0
3.072	431.497867011	20.0
3.0822	432.03374619	21.0
3.0925	432.572276591	23.0
3.1027	433.103013688	11.0
3.113	433.636376568	24.0
3.1232	434.162020926	35.0
3.1334	434.685149572	34.0
3.1437	435.210866357	29.0
3.1539	435.728975271	30.0
3.1642	436.24964749	21.0
3.1744	436.762784839	31.0
3.1846	437.273466333	24.0
3.1949	437.786674386	26.0
3.2051	438.292455587	29.0
3.2154	438.800739102	27.0
3.2256	439.30166703	31.0
3.2358	439.800197536	28.0
3.2461	440.301194486	31.0
3.2563	440.794941294	26.0
3.2666	441.291130879	32.0
3.2768	441.780139892	40.0
3.287	442.266808527	33.0
3.2973	442.75588492	26.0
3.3075	443.237883679	22.0
3.3178	443.722267092	33.0
3.328	444.199640785	37.0
3.3382	444.674729787	40.0
3.3485	445.152169257	30.0
3.3587	445.622699496	26.0
3.369	446.095557649	33.0
3.3792	446.561572869	37.0
3.3894	447.02535776	32.0
3.3997	447.491437192	33.0
3.4099	447.950771789	28.0
3.4202	448.412378911	39.0
3.4304	448.867305918	29.0
3.4406	449.320055663	42.0
3.4509	449.775045354	37.0
3.4611	450.223450695	38.0
3.4714	450.674074488	37.0
3.4816	451.118177112	36.0
3.4918	451.560154279	30.0
3.5021	452.004318095	33.0
3.5123	452.442054226	39.0
3.5226	452.881956025	29.0
3.5328	453.315491817	31.0
3.543	453.746952724	39.0
3.5533	454.180548252	31.0
3.5635	454.607869034	35.0
3.5738	455.037303954	33.0
3.584	455.460524337	44.0
3.5942	455.881719206	35.0
3.6045	456.304997904	33.0
3.6147	456.722151156	34.0
3.625	457.141368242	30.0
3.6352	457.554518659	21.0
3.6454	457.965691755	32.0
3.6557	458.378899099	29.0
3.6659	458.786126744	29.0
3.6762	459.195369117	22.0
3.6864	459.598689168	34.0
3.6966	460.000078947	38.0
3.7069	460.403454571	28.0
3.7171	460.800992775	32.0
3.7274	461.200497769	29.0
3.7376	461.594221356	32.0
3.7478	461.986060598	27.0
3.7581	462.379838436	41.0
3.7683	462.767917746	28.0
3.7786	463.15791705	29.0
3.7888	463.542272507	26.0
3.799	463.924788455	39.0
3.8093	464.309196872	32.0
3.8195	464.68804235	30.0
3.8298	465.068762139	34.0
3.84	465.443972369	17.0
3.8502	465.817386858	27.0
3.8605	466.192648787	22.0
3.8707	466.562480141	28.0
3.881	466.934141208	27.0
3.8912	467.300423809	23.0
3.9014	467.664953396	28.0
3.9117	468.031286467	30.0
3.9219	468.392318175	35.0
3.9322	468.755136061	30.0
3.9424	469.112703454	18.0
3.9526	469.468559544	25.0
3.9629	469.826176206	23.0
3.9731	470.178617644	38.0
3.9834	470.53280276	29.0
3.9936	470.881862313	19.0
4.0038	471.22925128	29.0
4.0141	471.578358928	26.0
4.0243	471.922414491	24.0
4.0346	472.268172243	22.0
4.0448	472.608926387	23.0
4.055	472.948049695	25.0
4.0653	473.288850791	20.0
4.0755	473.624720008	30.0
4.0858	473.962250914	25.0
4.096	474.294897266	29.0
4.1062	474.625951585	24.0
4.1165	474.958643772	29.0
4.1267	475.286521428	29.0
4.137	475.616021234	28.0
4.1472	475.940752708	20.0
4.1574	476.26393003	21.0
4.1677	476.588706248	16.0
4.1779	476.90878249	21.0
4.1882	477.230442287	30.0
4.1984	477.547447206	30.0
4.2086	477.862934953	31.0
4.2189	478.179983553	33.0
4.2291	478.492444006	25.0
4.2394	478.806450335	26.0
4.2496	479.115912544	18.0
4.2598	479.423893679	29.0
4.2701	479.733398529	28.0
4.2803	480.038424401	28.0
4.2906	480.344959366	29.0
4.3008	480.647058333	19.0
4.311	480.947711466	19.0
4.3213	481.249852059	23.0
4.3315	481.547620246	24.0
4.3418	481.846861619	28.0
4.352	482.141772542	29.0
4.3622	482.435272034	26.0
4.3725	482.730223592	22.0
4.3827	483.020906781	24.0
4.393	483.313028103	18.0
4.4032	483.600922013	21.0
4.4134	483.887438074	17.0
4.4237	484.175371652	24.0
4.4339	484.45913842	26.0
4.4442	484.744309104	22.0
4.4544	485.02535296	24.0
4.4646	485.305051752	24.0
4.4749	485.586134333	24.0
4.4851	485.863149249	27.0
4.4954	486.141534674	17.0
4.5056	486.415891466	19.0
4.5158	486.688935197	32.0
4.5261	486.963329791	23.0
4.5363	487.233753505	21.0
4.5466	487.505515119	20.0
4.5568	487.773343955	24.0
4.567	488.039890973	32.0
4.5773	488.307756713	33.0
4.5875	488.571746054	29.0
4.5978	488.837041462	20.0
4.608	489.098497666	23.0
4.6182	489.358702552	15.0
4.6285	489.620194783	26.0
4.6387	489.877902847	27.0
4.649	490.136885904	25.0
4.6592	490.392121106	23.0
4.6694	490.646134762	22.0
4.6797	490.901405132	26.0
4.6899	491.152981376	23.0
4.7002	491.405802274	25.0
4.7104	491.654964494	31.0
4.7206	491.902934233	29.0
4.7309	492.152130784	19.0
4.7411	492.397721105	12.0
4.7514	492.644526466	25.0
4.7616	492.887760201	23.0
4.7718	493.12982983	17.0
4.7821	493.37309708	18.0
4.7923	493.612843906	18.0
4.8026	493.853776861	27.0
4.8128	494.091223173	17.0
4.823	494.327533076	28.0
4.8333	494.565012105	24.0
4.8435	494.799054474	19.0
4.8538	495.03425475	22.0
4.864	495.266051342	19.0
4.8742	495.496738565	27.0
4.8845	495.728567097	23.0
4.8947	495.957040738	17.0
4.905	496.186644736	20.0
4.9152	496.412926036	24.0
4.9254	496.638124363	24.0
4.9357	496.864436843	16.0
4.9459	497.087474257	22.0
4.9562	497.311615133	19.0
4.9664	497.532512371	30.0
4.9766	497.752352403	22.0
4.9869	497.973280077	29.0
4.9971	498.191010613	25.0
5.0074	498.409818354	21.0
5.0176	498.625459636	26.0
5.0278	498.840068866	20.0
5.0381	499.05573986	20.0
5.0483	499.268289787	25.0
5.0586	499.481891289	22.0
5.0688	499.692401673	14.0
5.079	499.901904562	21.0
5.0893	500.112443951	22.0
5.0995	500.319936535	21.0
5.1098	500.528455673	23.0
5.12	500.733957241	25.0
5.1302	500.938475288	24.0
5.1405	501.144005172	16.0
5.1507	501.346560745	21.0
5.161	501.550118447	25.0
5.1712	501.750730379	19.0
5.1814	501.95038219	18.0
5.1917	502.151021764	20.0
5.2019	502.348757797	21.0
5.2122	502.547472114	14.0
5.2224	502.743310751	21.0
5.2326	502.938212113	20.0
5.2429	503.134077734	22.0
5.2531	503.327108901	15.0
5.2634	503.521095075	19.0
5.2736	503.712273992	25.0
5.2838	503.902537935	14.0
5.2941	504.093743194	14.0
5.3043	504.28218144	17.0
5.3146	504.471551971	26.0
5.3248	504.65818204	18.0
5.335	504.843918905	14.0
5.3453	505.030574689	23.0
5.3555	505.214529298	13.0
5.3658	505.399394008	18.0
5.376	505.581583463	22.0
5.3862	505.762900966	17.0
5.3965	505.945115523	17.0
5.4067	506.124693177	22.0
5.417	506.305159277	23.0
5.4272	506.483013775	23.0
5.4374	506.660017069	13.0
5.4477	506.837896074	24.0
5.4579	507.013200915	23.0
5.4682	507.189373065	22.0
5.4784	507.362995751	12.0
5.4886	507.535787487	21.0
5.4989	507.709434097	15.0
5.5091	507.880567793	14.0
5.5194	508.05254816	13.0
5.5296	508.222039725	12.0
5.5398	508.390720111	18.0
5.5501	508.560235031	13.0
5.5603	508.727296828	14.0
5.5706	508.895185151	12.0
5.5808	509.06064389	6.0
5.591	509.22531075	16.0
5.6013	509.390792287	22.0
5.6115	509.55387907	10.0
5.6218	509.717772714	15.0
5.632	509.879294582	15.0
5.6422	510.040043413	11.0
5.6525	510.201587537	15.0
5.6627	510.360793887	14.0
5.673	510.520787899	22.0
5.6832	510.678466569	15.0
5.6934	510.835390595	17.0
5.7037	510.993090991	11.0
5.7139	511.148509237	9.0
5.7242	511.304696404	9.0
5.7344	511.45862332	8.0
5.7446	511.611813547	15.0
5.7549	511.765761672	6.0
5.7651	511.917481948	10.0
5.7754	512.069952848	8.0
5.7856	512.220217277	8.0
5.7958	512.369762547	7.0
5.8061	512.520047681	13.0
5.8163	512.668157974	8.0
5.8266	512.817001032	11.0
5.8368	512.963690119	7.0
5.847	513.109677157	18.0
5.8573	513.256386456	11.0
5.8675	513.400972662	4.0
5.8778	513.546274197	9.0
5.888	513.689473012	10.0
5.8982	513.831986483	8.0
5.9085	513.975205029	4.0
5.9187	514.116350998	8.0
5.929	514.258195276	11.0
5.9392	514.397986865	7.0
5.9494	514.537109417	11.0
5.9597	514.676920268	11.0
5.9699	514.814707856	6.0
5.9802	514.953177139	7.0
5.9904	515.089642573	4.0
6.0006	515.225454889	6.0
6.0109	515.361939126	10.0
6.0211	515.496448242	4.0
6.0314	515.631622831	7.0
6.0416	515.764841252	2.0
6.0518	515.897422094	7.0
6.0621	516.03065887	4.0
6.0723	516.16196752	5.0
6.0826	516.29392581	1.0
6.0928	516.423974475	2.0
6.103	516.553400732	6.0
6.1133	516.683467317	4.0
6.1235	516.811651652	0.0
6.1338	516.940470169	0.0
6.144	517.067424499	5.0
6.1542	517.193771231	5.0
6.1645	517.320743053	3.0
6.1747	517.445877412	8.0
6.185	517.571630865	1.0
6.1952	517.695564485	3.0
6.2054	517.818904964	3.0
6.2157	517.942855661	0.0
6.2259	518.065012614	1.0
6.2362	518.18777393	3.0
6.2464	518.308758714	5.0
6.2566	518.42916447	3.0
6.2669	518.550165925	2.0
6.2771	518.669416316	5.0
6.2874	518.789256689	3.0
6.2976	518.907362802	1.0
6.3078	519.024903663	1.0
6.3181	519.143026049	2.0
6.3283	519.259439035	1.0
6.3386	519.376427966	3.0
6.3488	519.4917239	4.0
6.359	519.606468033	0.0
6.3693	519.721779853	2.0
6.3795	519.835422947	1.0
6.3898	519.949628282	3.0
6.4	520.062180903	3.0
6.4102	520.174194851	3.0
6.4205	520.28676298	1.0
6.4307	520.397702088	1.0
6.441	520.509190058	1.0
6.4512	520.619064639	1.0
6.4614	520.728413364	1.0
6.4717	520.838303084	0.0
6.4819	520.946602543	1.0
6.4922	521.055437805	2.0
6.5024	521.162698066	2.0
6.5126	521.269444984	1.0
6.5229	521.376720024	2.0
6.5331	521.482442641	3.0
6.5434	521.588688313	2.0
6.5536	521.693396458	0.0
6.5638	521.797603475	0.0
6.5741	521.902326048	0.0
6.5843	522.005533136	0.0
6.5946	522.109250833	0.0
6.6048	522.211467588	0.0
6.615	522.313195137	1.0
6.6253	522.415425975	1.0
6.6355	522.516177388	1.0
6.6458	522.61742726	1.0
6.656	522.717211903	0.0
6.6662	522.81651898	0.0
6.6765	522.916317371	4.0
6.6867	523.014671538	1.0
6.697	523.113512304	0.0
6.7072	523.210922704	1.0
6.7174	523.307866901	1.0
6.7277	523.405290722	0.0
6.7379	523.501304682	1.0
6.7482	523.597793664	2.0
6.7584	523.692886312	1.0
6.7686	523.787523851	1.0
6.7789	523.882629602	1.0
6.7891	523.976359037	0.0
6.7994	524.070552192	1.0
6.8096	524.163382237	1.0
6.8198	524.255768001	0.0
6.8301	524.348610837	0.0
6.8403	524.440110105	1.0
6.8506	524.532062059	0.0
6.8608	524.622683336	0.0
6.871	524.712870904	1.0
6.8813	524.803504668	1.0
6.8915	524.892826832	1.0
6.9018	524.982590911	0.0
6.912	525.071055976	0.0
6.9222	525.159097651	0.0
6.9325	525.247574905	1.0
6.9427	525.334771767	0.0
6.953	525.422400029	1.0
6.9632	525.508760185	2.0
6.9734	525.594707025	0.0
6.9837	525.68107908	2.0
6.9939	525.766201209	1.0
7.0042	525.851744473	0.0
7.0144	525.936049803	2.0
7.0246	526.019951652	1.0
7.0349	526.1042686	0.0
7.0451	526.18736536	1.0
7.0554	526.270873236	1.0
7.0656	526.353172633	0.0
7.0758	526.435078149	0.0
7.0861	526.517388887	1.0
7.0963	526.59850847	2.0
7.1066	526.680029387	1.0
7.1168	526.76037058	1.0
7.127	526.840327263	1.0
7.1373	526.920679525	0.0
7.1475	526.999868976	0.0
7.1578	527.079450211	2.0
7.168	527.157879792	0.0
7.1782	527.235934012	1.0
7.1885	527.314374399	0.0
7.1987	527.391679642	0.0
7.209	527.469367347	4.0
7.2192	527.5459308	0.0
7.2294	527.622127824	1.0
7.2397	527.698701826	0.0
7.2499	527.774167694	0.0
7.2602	527.850006923	0.0
7.2704	527.924748651	0.0
7.2806	527.999132667	0.0
7.2909	528.073884693	1.0
7.3011	528.147554951	0.0
7.3114	528.221589686	0.0
7.3216	528.294553034	0.0
7.3318	528.367167182	1.0
7.3421	528.440140582	1.0
7.3523	528.512057954	2.0
7.3626	528.584331131	2.0
7.3728	528.655558413	1.0
7.383	528.726444803	1.0
7.3933	528.797681899	1.0
7.4035	528.867888092	1.0
7.4138	528.938441626	0.0
7.424	529.007974149	1.0
7.4342	529.077173892	0.0
7.4445	529.146715995	0.0
7.4547	529.215251725	0.0
7.465	529.284126531	1.0
7.4752	529.35200462	1.0
7.4854	529.419557847	1.0
7.4957	529.487445289	1.0
7.5059	529.554350302	0.0
7.5162	529.621586324	1.0
7.5264	529.687849344	0.0
7.5366	529.753795231	0.0
7.5469	529.820067382	0.0
7.5571	529.885380479	1.0
7.5674	529.951016709	0.0
7.5776	530.015703088	1.0
7.5878	530.080079881	0.0
7.5981	530.144775174	1.0
7.6083	530.208534233	1.0
7.6186	530.272608735	0.0
7.6288	530.335755988	0.0
7.639	530.398601021	1.0
7.6493	530.461756975	1.0
7.6595	530.523998972	1.0
7.6698	530.586548907	1.0
7.68	530.648193655	0.0
7.6902	530.709543374	1.0
7.7005	530.771196616	0.0
7.7107	530.831957647	1.0
7.721	530.89301929	0.0
7.7312	530.953197283	0.0
7.7414	531.013087266	1.0
7.7517	531.073273551	1.0
7.7619	531.132588855	0.0
7.7722	531.192197617	1.0
7.7824	531.250943754	0.0
7.7926	531.309408735	0.0
7.8029	531.368162968	0.0
7.8131	531.426066942	1.0
7.8234	531.484257393	1.0
7.8336	531.541605744	0.0
7.8438	531.598679629	2.0
7.8541	531.656035882	0.0
7.8643	531.712562109	1.0
7.8746	531.769367995	0.0
7.8848	531.825351818	1.0
7.895	531.881067705	0.0
7.9053	531.937059243	0.0
7.9155	531.992240503	2.0
7.9258	532.047694768	1.0
7.936	532.102346531	1.0
7.9462	532.156736733	1.0
7.9565	532.211396026	0.0
7.9667	532.265264322	0.0
7.977	532.319399126	0.0
7.9872	532.372750523	1.0
7.9974	532.425846582	1.0
8.0077	532.47920533	0.0
8.0179	532.531791901	2.0
8.0282	532.58463864	1.0
8.0384	532.636720611	0.0
