TL-DOS Lehrstuhlversuch
detector=R1408302
job_number=2015-10-16-002
irradiation_dose [mSv]=2.0

[BEGIN DATA]
time [sec] 	 temperature [K] 	 photoncount 
0.0	182.96418035	0.0
0.0102	184.202071167	0.0
0.0205	185.448068362	2.0
0.0307	186.677990658	2.0
0.041	187.91596715	3.0
0.0512	189.137972221	3.0
0.0614	190.356056997	1.0
0.0717	191.58211845	1.0
0.0819	192.7923622	3.0
0.0922	194.01053128	2.0
0.1024	195.212984479	2.0
0.1126	196.411580107	0.0
0.1229	197.618024786	2.0
0.1331	198.808904844	2.0
0.1434	200.007583427	1.0
0.1536	201.19079758	2.0
0.1638	202.370215884	0.0
0.1741	203.557357655	0.0
0.1843	204.729183836	3.0
0.1946	205.908683767	0.0
0.2048	207.072966696	0.0
0.215	208.233514509	0.0
0.2253	209.401662215	1.0
0.2355	210.554739377	2.0
0.2458	211.715367511	3.0
0.256	212.861022113	0.0
0.2662	214.003001359	0.0
0.2765	215.152458902	0.0
0.2867	216.287087028	1.0
0.297	217.42914531	0.0
0.3072	218.556469635	0.0
0.3174	219.680177409	0.0
0.3277	220.811243828	0.0
0.3379	221.927718097	1.0
0.3482	223.051503643	0.0
0.3584	224.160790971	0.0
0.3686	225.266519613	0.0
0.3789	226.379489163	0.0
0.3891	227.478100035	2.0
0.3994	228.583905205	0.0
0.4096	229.675444126	0.0
0.4198	230.763481298	1.0
0.4301	231.858643526	0.0
0.4403	232.939676812	0.0
0.4506	234.027789289	0.0
0.4608	235.101863774	0.0
0.471	236.172492538	0.0
0.4813	237.250132358	0.0
0.4915	238.313869297	0.0
0.5018	239.384572159	0.0
0.512	240.441461637	0.0
0.5222	241.494960524	0.0
0.5325	242.555358291	0.0
0.5427	243.602075621	0.0
0.553	244.655647421	0.0
0.5632	245.695626848	0.0
0.5734	246.732269934	0.0
0.5837	247.775701518	1.0
0.5939	248.80567155	0.0
0.6042	249.842386382	0.0
0.6144	250.865726316	0.0
0.6246	251.885783289	0.0
0.6349	252.912520147	0.0
0.6451	253.926010835	0.0
0.6554	254.946138407	0.0
0.6656	255.953105077	0.0
0.6758	256.956841314	3.0
0.6861	257.967150557	0.0
0.6963	258.964425568	0.0
0.7066	259.968231273	0.0
0.7168	260.959086649	0.0
0.727	261.946763278	0.0
0.7373	262.940907747	0.0
0.7475	263.922226528	0.0
0.7578	264.909971514	0.0
0.768	265.884973373	0.0
0.7782	266.856847345	0.0
0.7885	267.835085673	0.0
0.7987	268.800703521	0.0
0.809	269.772644757	0.0
0.8192	270.732046753	0.0
0.8294	271.688370908	0.0
0.8397	272.65095759	0.0
0.8499	273.601125718	1.0
0.8602	274.55751606	0.0
0.8704	275.501567789	0.0
0.8806	276.442590921	0.0
0.8909	277.389776381	0.0
0.9011	278.324741981	0.0
0.9114	279.265830242	1.0
0.9216	280.194777305	0.0
0.9318	281.120744228	0.0
0.9421	282.052774882	0.0
0.9523	282.972781193	0.0
0.9626	283.898812203	1.0
0.9728	284.812896272	1.0
0.983	285.724047883	0.0
0.9933	286.641166206	0.0
1.0035	287.546452574	0.0
1.0138	288.457667246	0.0
1.024	289.357126126	0.0
1.0342	290.253699467	0.0
1.0445	291.156144055	1.0
1.0547	292.046945996	0.0
1.065	292.943581389	0.0
1.0752	293.828649081	1.0
1.0854	294.710877402	0.0
1.0957	295.598883031	0.0
1.1059	296.475432293	0.0
1.1162	297.357721673	0.0
1.1264	298.228628434	0.0
1.1366	299.096741253	0.0
1.1469	299.970538944	0.0
1.1571	300.833063568	1.0
1.1674	301.701236469	0.0
1.1776	302.558208871	1.0
1.1878	303.412432033	0.0
1.1981	304.272249111	0.0
1.2083	305.120973488	1.0
1.2186	305.975255772	0.0
1.2288	306.818516762	0.0
1.239	307.6590725	0.0
1.2493	308.505132651	0.0
1.2595	309.340277584	0.0
1.2698	310.180891498	0.0
1.28	311.010660456	2.0
1.2902	311.837767447	1.0
1.3005	312.67029078	1.0
1.3107	313.492073537	1.0
1.321	314.319237772	0.0
1.3312	315.135730569	1.0
1.3414	315.949603989	0.0
1.3517	316.768807092	1.0
1.3619	317.577441466	1.0
1.3722	318.391371214	0.0
1.3824	319.194800267	1.0
1.3926	319.995651851	0.0
1.4029	320.801747845	0.0
1.4131	321.597444207	0.0
1.4234	322.398351219	0.0
1.4336	323.188925544	0.0
1.4438	323.97696364	1.0
1.4541	324.770162236	1.0
1.4643	325.553127593	1.0
1.4746	326.341220229	1.0
1.4848	327.119145501	1.0
1.495	327.894575122	0.0
1.5053	328.675082676	1.0
1.5155	329.445520721	1.0
1.5258	330.221004011	0.0
1.536	330.986482611	0.0
1.5462	331.749505492	0.0
1.5565	332.517525058	1.0
1.5667	333.275636226	3.0
1.577	334.038711916	3.0
1.5872	334.79194299	4.0
1.5974	335.542757635	2.0
1.6077	336.29848902	4.0
1.6179	337.044470539	3.0
1.6282	337.795337149	3.0
1.6384	338.536516654	5.0
1.6486	339.275318393	5.0
1.6589	340.018958205	4.0
1.6691	340.753004148	4.0
1.6794	341.49185702	8.0
1.6896	342.221177781	5.0
1.6998	342.948158819	7.0
1.7101	343.679900521	4.0
1.7203	344.402201855	10.0
1.7306	345.129233207	4.0
1.7408	345.84688496	8.0
1.751	346.562234426	4.0
1.7613	347.282268387	10.0
1.7715	347.993013022	5.0
1.7818	348.708411998	9.0
1.792	349.414581446	5.0
1.8022	350.118485443	5.0
1.8125	350.826998983	7.0
1.8227	351.526371826	12.0
1.833	352.230324541	13.0
1.8432	352.925195398	9.0
1.8534	353.617837052	6.0
1.8637	354.315014497	7.0
1.8739	355.003197494	13.0
1.8842	355.695887086	20.0
1.8944	356.379640129	18.0
1.9046	357.061199634	12.0
1.9149	357.74722236	13.0
1.9251	358.424394547	27.0
1.9354	359.106001224	23.0
1.9456	359.778814335	21.0
1.9558	360.449469005	26.0
1.9661	361.124515484	27.0
1.9763	361.790853033	25.0
1.9866	362.461554119	33.0
1.9968	363.123602336	26.0
2.007	363.783526646	35.0
2.0173	364.447772497	35.0
2.0275	365.103448759	27.0
2.0378	365.763418743	40.0
2.048	366.414874301	41.0
2.0582	367.064239936	42.0
2.0685	367.717857967	38.0
2.0787	368.363043521	56.0
2.089	369.012454098	57.0
2.0992	369.653486479	46.0
2.1094	370.292462374	53.0
2.1197	370.935622629	69.0
2.1299	371.570485324	55.0
2.1402	372.209505443	73.0
2.1504	372.840281416	74.0
2.1606	373.469033807	57.0
2.1709	374.101903607	66.0
2.1811	374.726608608	85.0
2.1914	375.355404515	92.0
2.2016	375.97608818	82.0
2.2118	376.59478064	93.0
2.2221	377.217524632	87.0
2.2323	377.83223446	89.0
2.2426	378.45096974	96.0
2.2528	379.061722573	98.0
2.263	379.670516059	118.0
2.2733	380.283296254	113.0
2.2835	380.88817083	125.0
2.2938	381.497006451	149.0
2.304	382.097987343	123.0
2.3142	382.697040238	124.0
2.3245	383.300016055	153.0
2.3347	383.895212741	161.0
2.345	384.494307097	153.0
2.3552	385.085672398	161.0
2.3654	385.675140549	181.0
2.3757	386.268468856	168.0
2.3859	386.854142497	194.0
2.3962	387.443651445	184.0
2.4064	388.025555002	210.0
2.4166	388.605591764	218.0
2.4269	389.18942692	229.0
2.4371	389.765729883	228.0
2.4474	390.345806789	246.0
2.4576	390.918399989	281.0
2.4678	391.489156262	279.0
2.4781	392.063650155	270.0
2.4883	392.630732369	293.0
2.4986	393.201528144	273.0
2.5088	393.764959951	270.0
2.519	394.326584221	285.0
2.5293	394.89188631	284.0
2.5395	395.449895307	301.0
2.5498	396.011558447	293.0
2.56	396.565975441	348.0
2.5702	397.118613819	336.0
2.5805	397.674871172	302.0
2.5907	398.223952119	323.0
2.601	398.776628746	336.0
2.6112	399.322175163	351.0
2.6214	399.865971422	343.0
2.6317	400.413328752	347.0
2.6419	400.953624498	347.0
2.6522	401.497458393	368.0
2.6624	402.034276161	362.0
2.6726	402.569371773	377.0
2.6829	403.107971479	372.0
2.6931	403.639622586	372.0
2.7034	404.174755232	359.0
2.7136	404.702984008	380.0
2.7238	405.229518181	353.0
2.7341	405.759500385	356.0
2.7443	406.282645165	380.0
2.7546	406.80921578	360.0
2.7648	407.328992986	373.0
2.775	407.847102702	327.0
2.7853	408.368605281	328.0
2.7955	408.883379835	327.0
2.8058	409.40152541	320.0
2.816	409.91298627	327.0
2.8262	410.42280632	318.0
2.8365	410.935964947	371.0
2.8467	411.442503195	344.0
2.857	411.95235853	286.0
2.8672	412.455636103	298.0
2.8774	412.95729912	285.0
2.8877	413.462247297	256.0
2.8979	413.96068102	261.0
2.9082	414.462378757	268.0
2.9184	414.957603975	238.0
2.9286	415.451240469	243.0
2.9389	415.948109562	237.0
2.9491	416.438568431	215.0
2.9594	416.93223909	223.0
2.9696	417.419540789	192.0
2.9798	417.905279184	192.0
2.9901	418.394198456	208.0
3.0003	418.876810068	220.0
3.0106	419.362582081	210.0
3.0208	419.842087036	172.0
3.031	420.3200537	183.0
3.0413	420.801150347	173.0
3.0515	421.276040255	177.0
3.0618	421.754039999	165.0
3.072	422.225872958	153.0
3.0822	422.696192237	189.0
3.0925	423.16959142	176.0
3.1027	423.636883171	177.0
3.113	424.107235001	164.0
3.1232	424.571518713	171.0
3.1334	425.034312964	167.0
3.1437	425.500137841	193.0
3.1539	425.959953004	205.0
3.1642	426.422779285	175.0
3.1744	426.879634537	184.0
3.1846	427.335024159	209.0
3.1949	427.793395919	182.0
3.2051	428.245854118	206.0
3.2154	428.701275258	195.0
3.2256	429.150820904	211.0
3.2358	429.59892437	218.0
3.2461	430.04996226	216.0
3.2563	430.495181205	211.0
3.2666	430.943315684	193.0
3.2768	431.385668677	234.0
3.287	431.826602565	215.0
3.2973	432.270423925	234.0
3.3075	432.708519444	246.0
3.3178	433.149483848	232.0
3.328	433.584759269	273.0
3.3382	434.01863829	252.0
3.3485	434.455358585	238.0
3.3587	434.88644465	261.0
3.369	435.320353699	299.0
3.3792	435.748664788	297.0
3.3894	436.175601819	263.0
3.3997	436.605334663	267.0
3.4099	437.029523425	328.0
3.4202	437.456490005	276.0
3.4304	437.877948189	300.0
3.4406	438.2980543	277.0
3.4509	438.720911493	304.0
3.4611	439.138313308	294.0
3.4714	439.558448495	273.0
3.4816	439.97316342	319.0
3.4918	440.386547906	358.0
3.5021	440.802639456	321.0
3.5123	441.213362913	299.0
3.5226	441.626776009	325.0
3.5328	442.034855566	357.0
3.543	442.441625971	332.0
3.5533	442.851060128	360.0
3.5635	443.255212079	343.0
3.5738	443.662010637	321.0
3.584	444.063560991	350.0
3.5942	444.463823139	331.0
3.6045	444.866706419	327.0
3.6147	445.264392009	350.0
3.625	445.664681859	336.0
3.6352	446.059807477	347.0
3.6454	446.453665499	360.0
3.6557	446.850102715	337.0
3.6659	447.241425404	374.0
3.6762	447.635310685	356.0
3.6864	448.02411436	343.0
3.6966	448.411670721	359.0
3.7069	448.80176501	387.0
3.7171	449.186826603	355.0
3.7274	449.574409787	336.0
3.7376	449.95699267	323.0
3.7478	450.338348195	316.0
3.7581	450.722201043	344.0
3.7683	451.101101716	334.0
3.7786	451.482483635	336.0
3.7888	451.858945258	327.0
3.799	452.23419916	313.0
3.8093	452.611910427	273.0
3.8195	452.984748754	320.0
3.8298	453.360028628	310.0
3.84	453.730466929	286.0
3.8502	454.099716834	292.0
3.8605	454.471384786	315.0
3.8707	454.838257763	328.0
3.881	455.207533223	296.0
3.8912	455.572044575	302.0
3.9014	455.935386544	322.0
3.9117	456.301107872	316.0
3.9219	456.662110945	276.0
3.9322	457.025478061	278.0
3.9424	457.384157294	291.0
3.9526	457.741685853	273.0
3.9629	458.101555703	264.0
3.9731	458.456782788	291.0
3.9834	458.814336093	305.0
3.9936	459.167276519	304.0
4.0038	459.519084683	264.0
4.0141	459.873196677	286.0
4.0243	460.222740189	277.0
4.0346	460.574572702	269.0
4.0448	460.921866142	236.0
4.055	461.268045435	282.0
4.0653	461.616491698	286.0
4.0755	461.960442575	299.0
4.0858	462.306645827	275.0
4.096	462.648382632	274.0
4.1062	462.989023116	288.0
4.1165	463.331894297	256.0
4.1267	463.670342019	307.0
4.137	464.011006079	286.0
4.1472	464.347275153	277.0
4.1574	464.682465447	259.0
4.1677	465.019850749	283.0
4.1779	465.352883365	286.0
4.1882	465.688096858	258.0
4.1984	466.018985685	295.0
4.2086	466.348812992	262.0
4.2189	466.680800187	292.0
4.2291	467.008504338	274.0
4.2394	467.338354472	267.0
4.2496	467.663949134	246.0
4.2598	467.988499261	256.0
4.2701	468.315174717	251.0
4.2803	468.637635658	259.0
4.2906	468.962208247	295.0
4.3008	469.28259345	279.0
4.311	469.60195083	286.0
4.3213	469.923399536	295.0
4.3315	470.240701156	295.0
4.3418	470.56008064	267.0
4.352	470.875339734	265.0
4.3622	471.189587451	260.0
4.3725	471.505893032	266.0
4.3827	471.818117881	269.0
4.393	472.132387347	279.0
4.4032	472.44260235	283.0
4.4134	472.751822158	273.0
4.4237	473.063066903	296.0
4.4339	473.370296208	271.0
4.4442	473.679537417	225.0
4.4544	473.984789033	242.0
4.4646	474.289061376	270.0
4.4749	474.595326259	265.0
4.4851	474.897639948	277.0
4.4954	475.20193335	254.0
4.5056	475.502300993	275.0
4.5158	475.801705031	243.0
4.5261	476.103069728	259.0
4.5363	476.40054645	270.0
4.5466	476.69997121	251.0
4.5568	476.995533021	247.0
4.567	477.290146646	264.0
4.5773	477.58668956	241.0
4.5875	477.879406705	265.0
4.5978	478.17404072	273.0
4.608	478.464873593	244.0
4.6182	478.75477345	285.0
4.6285	479.046571728	250.0
4.6387	479.334605448	272.0
4.649	479.62452537	262.0
4.6592	479.910704967	263.0
4.6694	480.195966476	246.0
4.6797	480.483096031	239.0
4.6899	480.766521262	251.0
4.7002	481.051802514	237.0
4.7104	481.333403286	233.0
4.7206	481.61410066	259.0
4.7309	481.896636192	256.0
4.7411	482.175526667	258.0
4.7514	482.456243468	234.0
4.7616	482.733338676	227.0
4.7718	483.00954494	260.0
4.7821	483.287559952	220.0
4.7923	483.561988227	244.0
4.8026	483.838213607	226.0
4.8128	484.11087534	252.0
4.823	484.382662351	234.0
4.8333	484.65622917	240.0
4.8435	484.92626664	269.0
4.8538	485.198072461	209.0
4.864	485.466371652	253.0
4.8742	485.733810118	243.0
4.8845	486.002999914	217.0
4.8947	486.268716831	217.0
4.905	486.536173806	218.0
4.9152	486.800180256	218.0
4.9254	487.063339752	240.0
4.9357	487.328222558	239.0
4.9459	487.589688049	220.0
4.9562	487.852865758	237.0
4.9664	488.112648151	284.0
4.9766	488.371597139	220.0
4.9869	488.632241866	241.0
4.9971	488.889523954	211.0
5.0074	489.148490865	229.0
5.0176	489.404116784	230.0
5.0278	489.658922633	257.0
5.0381	489.915397088	211.0
5.0483	490.168562707	219.0
5.0586	490.423386192	229.0
5.0688	490.67492214	218.0
5.079	490.925651139	256.0
5.0893	491.178022047	249.0
5.0995	491.427137059	233.0
5.1098	491.677883412	211.0
5.12	491.925394827	217.0
5.1302	492.172112205	205.0
5.1405	492.420445222	238.0
5.1507	492.665574437	219.0
5.161	492.912308891	215.0
5.1712	493.155860166	247.0
5.1814	493.398630109	235.0
5.1917	493.64298984	195.0
5.2019	493.884197029	230.0
5.2122	494.126983774	226.0
5.2224	494.36663827	220.0
5.2326	494.605523935	242.0
5.2429	494.845973952	227.0
5.2531	495.083321868	234.0
5.2634	495.322224066	214.0
5.2736	495.558044132	234.0
5.2838	495.793107667	224.0
5.2941	496.029710525	242.0
5.3043	496.263260915	244.0
5.3146	496.498340719	235.0
5.3248	496.730387704	223.0
5.335	496.961690263	236.0
5.3453	497.194507516	232.0
5.3555	497.424321139	230.0
5.3658	497.655639707	250.0
5.376	497.88397398	225.0
5.3862	498.111575737	228.0
5.3965	498.340667954	228.0
5.4067	498.566804599	219.0
5.417	498.794422109	224.0
5.4272	499.019103072	235.0
5.4374	499.243063241	213.0
5.4477	499.468490021	227.0
5.4579	499.691008518	243.0
5.4682	499.914984187	250.0
5.4784	500.136070294	231.0
5.4886	500.356447138	214.0
5.4989	500.578267128	219.0
5.5091	500.797225368	243.0
5.5194	501.017617464	217.0
5.5296	501.235166231	232.0
5.5398	501.452017083	226.0
5.5501	501.670287992	249.0
5.5603	501.885742937	233.0
5.5706	502.102608798	222.0
5.5808	502.316676822	235.0
5.591	502.530058097	220.0
5.6013	502.744836709	219.0
5.6115	502.956844412	216.0
5.6218	503.170240456	229.0
5.632	503.380883428	212.0
5.6422	503.59085064	190.0
5.6525	503.80219283	225.0
5.6627	504.010808446	198.0
5.673	504.22079019	200.0
5.6832	504.42806291	212.0
5.6934	504.634670683	216.0
5.7037	504.842631434	214.0
5.7139	505.047909236	220.0
5.7242	505.254531308	193.0
5.7344	505.458487701	208.0
5.7446	505.661789784	197.0
5.7549	505.866423199	195.0
5.7651	506.068416591	197.0
5.7754	506.271732745	185.0
5.7856	506.472425871	170.0
5.7958	506.672475155	180.0
5.8061	506.873834471	184.0
5.8163	507.072596004	158.0
5.8266	507.272659134	162.0
5.8368	507.470141204	185.0
5.847	507.666989734	177.0
5.8573	507.865127335	149.0
5.8675	508.060708717	169.0
5.8778	508.257570872	149.0
5.888	508.451893262	162.0
5.8982	508.64559225	180.0
5.9085	508.840559683	173.0
5.9187	509.033011796	148.0
5.929	509.22672419	164.0
5.9392	509.417937456	142.0
5.9494	509.608537293	186.0
5.9597	509.80038528	129.0
5.9699	509.989758193	129.0
5.9802	510.180371222	131.0
5.9904	510.368525107	122.0
6.0006	510.55607538	134.0
6.0109	510.744853833	121.0
6.0211	510.931196811	126.0
6.0314	511.118760064	130.0
6.0416	511.30390352	146.0
6.0518	511.48845302	130.0
6.0621	511.67421105	117.0
6.0723	511.857572572	113.0
6.0826	512.042134845	100.0
6.0928	512.224316037	108.0
6.103	512.405912777	120.0
6.1133	512.58869871	92.0
6.1235	512.76912648	96.0
6.1338	512.950735788	101.0
6.144	513.130002112	102.0
6.1542	513.308693335	97.0
6.1645	513.488554725	114.0
6.1747	513.666095681	101.0
6.185	513.844799272	98.0
6.1952	514.021197365	91.0
6.2054	514.197029559	78.0
6.2157	514.374013198	82.0
6.2259	514.548713529	90.0
6.2362	514.724557892	78.0
6.2464	514.898133647	69.0
6.2566	515.071152556	72.0
6.2669	515.245304486	82.0
6.2771	515.417209642	71.0
6.2874	515.590240526	50.0
6.2976	515.761039098	69.0
6.3078	515.931289734	56.0
6.3181	516.102655263	56.0
6.3283	516.271809966	56.0
6.3386	516.442072385	55.0
6.3488	516.61013821	51.0
6.359	516.777664865	58.0
6.3693	516.946288575	53.0
6.3795	517.112736831	56.0
6.3898	517.280275081	40.0
6.4	517.445651881	53.0
6.4102	517.610498138	51.0
6.4205	517.776423898	57.0
6.4307	517.940209011	43.0
6.441	518.105066677	53.0
6.4512	518.267797476	41.0
6.4614	518.430006222	39.0
6.4717	518.593277198	39.0
6.4819	518.754441777	47.0
6.4922	518.916661749	41.0
6.5024	519.076788883	42.0
6.5126	519.236402316	26.0
6.5229	519.397060985	27.0
6.5331	519.555646958	35.0
6.5434	519.715271438	28.0
6.5536	519.872836566	20.0
6.5638	520.029896212	29.0
6.5741	520.187984369	32.0
6.5843	520.344032994	22.0
6.5946	520.50110351	23.0
6.6048	520.656147622	30.0
6.615	520.81069434	29.0
6.6253	520.966253114	21.0
6.6355	521.119804988	21.0
6.6458	521.274362402	15.0
6.656	521.426925836	25.0
6.6662	521.578999833	19.0
6.6765	521.732069693	22.0
6.6867	521.883164763	24.0
6.697	522.035249285	12.0
6.7072	522.18537173	14.0
6.7174	522.335012569	16.0
6.7277	522.485633337	15.0
6.7379	522.634310912	15.0
6.7482	522.783962108	16.0
6.7584	522.931682619	19.0
6.7686	523.07892923	17.0
6.7789	523.227140092	15.0
6.7891	523.373438851	16.0
6.7994	523.520695654	11.0
6.8096	523.666052662	19.0
6.8198	523.810943353	12.0
6.8301	523.956782866	10.0
6.8403	524.10074087	5.0
6.8506	524.245641589	11.0
6.8608	524.38867291	11.0
6.871	524.531245375	13.0
6.8813	524.674751481	9.0
6.8915	524.816406182	11.0
6.9018	524.958988514	11.0
6.912	525.099731358	14.0
6.9222	525.240022688	3.0
6.9325	525.381232721	10.0
6.9427	525.52062097	9.0
6.953	525.66092201	12.0
6.9632	525.799412993	4.0
6.9734	525.937459685	3.0
6.9837	526.076410382	12.0
6.9939	526.213568443	5.0
7.0042	526.35162469	12.0
7.0144	526.487899841	6.0
7.0246	526.62373781	7.0
7.0349	526.760465319	5.0
7.0451	526.895428875	10.0
7.0554	527.031276245	3.0
7.0656	527.165371017	12.0
7.0758	527.299035602	7.0
7.0861	527.433575494	5.0
7.0963	527.566379656	5.0
7.1066	527.700053492	5.0
7.1168	527.832002771	3.0
7.127	527.963528745	9.0
7.1373	528.095916022	3.0
7.1475	528.22659534	3.0
7.1578	528.358130418	4.0
7.168	528.48796853	3.0
7.1782	528.617390111	6.0
7.1885	528.747659215	6.0
7.1987	528.876247687	4.0
7.209	529.005678225	4.0
7.2192	529.13343895	6.0
7.2294	529.260789808	2.0
7.2397	529.388974628	6.0
7.2499	529.515505706	3.0
7.2602	529.642865378	1.0
7.2704	529.768581954	2.0
7.2806	529.89389522	6.0
7.2909	530.020029105	6.0
7.3011	530.144535707	4.0
7.3114	530.269857646	2.0
7.3216	530.393562778	8.0
7.3318	530.516871053	2.0
7.3421	530.640986818	4.0
7.3523	530.763501336	0.0
7.3626	530.886818145	0.0
7.3728	531.008544016	8.0
7.383	531.12987938	3.0
7.3933	531.252009314	2.0
7.4035	531.37256362	1.0
7.4138	531.493907382	5.0
7.424	531.61368566	5.0
7.4342	531.733079679	4.0
7.4445	531.853255554	4.0
7.4547	531.971881013	3.0
7.465	532.091283295	2.0
7.4752	532.209145141	2.0
7.4854	532.326628876	1.0
7.4957	532.444881958	1.0
7.5059	532.561609429	3.0
7.5162	532.679101295	0.0
7.5264	532.795077372	4.0
7.5366	532.910681387	2.0
7.5469	533.02704244	1.0
7.5571	533.141902292	5.0
7.5674	533.257514309	2.0
7.5776	533.371634788	2.0
7.5878	533.485389159	1.0
7.5981	533.599888455	4.0
7.6083	533.712910569	4.0
7.6186	533.826672813	1.0
7.6288	533.938967383	1.0
7.639	534.050901704	1.0
7.6493	534.163569031	0.0
7.6595	534.27478281	2.0
7.6698	534.386724878	2.0
7.68	534.497222755	5.0
7.6902	534.607366145	1.0
7.7005	534.718230814	2.0
7.7107	534.827665193	0.0
7.721	534.937816206	0.0
7.7312	535.046546136	3.0
7.7414	535.154927251	0.0
7.7517	535.264018104	4.0
7.7619	535.371701551	2.0
7.7722	535.480090168	3.0
7.7824	535.587080437	3.0
7.7926	535.693727473	2.0
7.8029	535.801072891	0.0
7.8131	535.907033421	0.0
7.8234	536.013687838	2.0
7.8336	536.118966282	1.0
