TL-DOS Lehrstuhlversuch
detector=R1408302
job_number=2015-11-03-009
irradiation_dose [mSv]=0.09

[BEGIN DATA]
time [sec] 	 temperature [K] 	 photoncount 
0.0	232.990247625	0.0
0.0102	233.807993862	0.0
0.0205	234.631883294	0.0
0.0307	235.445922272	1.0
0.041	236.266076593	1.0
0.0512	237.076425118	4.0
0.0614	237.884943655	1.0
0.0717	238.699536066	0.0
0.0819	239.504389177	1.0
0.0922	240.315288625	5.0
0.1024	241.116492928	4.0
0.1126	241.915887893	0.0
0.1229	242.721288192	1.0
0.1331	243.517059094	0.0
0.1434	244.318808103	1.0
0.1536	245.11097137	1.0
0.1638	245.901345717	6.0
0.1741	246.697657632	3.0
0.1843	247.48444881	1.0
0.1946	248.277150637	0.0
0.2048	249.06037489	2.0
0.215	249.84183041	0.0
0.2253	250.629156496	1.0
0.2355	251.40706928	0.0
0.2458	252.190826016	0.0
0.256	252.965212126	1.0
0.2662	253.737849461	0.0
0.2765	254.516291118	0.0
0.2867	255.285425695	0.0
0.297	256.060338279	0.0
0.3072	256.825985978	0.0
0.3174	257.589904636	0.0
0.3277	258.359562117	0.0
0.3379	259.120017544	0.0
0.3482	259.886185776	0.0
0.3584	260.643193671	0.0
0.3686	261.398492036	0.0
0.3789	262.159464466	0.0
0.3891	262.911338679	0.0
0.3994	263.668861233	0.0
0.4096	264.417326818	0.0
0.4198	265.164102165	0.0
0.4301	265.916487547	0.0
0.4403	266.659877381	0.0
0.4506	267.408851818	0.0
0.4608	268.148871487	0.0
0.471	268.887219991	0.0
0.4813	269.631115225	0.0
0.4915	270.36611642	0.0
0.5018	271.106639199	0.0
0.512	271.838308258	0.0
0.5222	272.568325011	0.0
0.5325	273.303825903	0.0
0.5427	274.030533117	1.0
0.553	274.76269961	0.0
0.5632	275.486112291	0.0
0.5734	276.20789131	0.0
0.5837	276.935092583	0.0
0.5939	277.653599411	0.0
0.6042	278.377503911	0.0
0.6144	279.092753381	0.0
0.6246	279.806387623	0.0
0.6349	280.525382935	0.0
0.6451	281.23578191	0.0
0.6554	281.951517649	0.0
0.6656	282.658696024	3.0
0.6758	283.364277399	0.0
0.6861	284.075159346	0.0
0.6963	284.77754196	0.0
0.7066	285.485201118	0.0
0.7168	286.184399475	0.0
0.727	286.882018851	0.0
0.7373	287.584878988	0.0
0.7475	288.279335701	0.0
0.7578	288.979009415	0.0
0.768	289.670317803	0.0
0.7782	290.360065028	0.0
0.7885	291.054993875	0.0
0.7987	291.741614125	0.0
0.809	292.433392506	0.0
0.8192	293.116899957	0.0
0.8294	293.798863863	0.0
0.8397	294.485950918	0.0
0.8499	295.164823135	0.0
0.8602	295.848795275	0.0
0.8704	296.524589818	0.0
0.8806	297.198858234	0.0
0.8909	297.878191988	0.0
0.9011	298.549403601	0.0
0.9114	299.22565759	0.0
0.9216	299.89382626	0.0
0.9318	300.560486023	0.0
0.9421	301.232153966	0.0
0.9523	301.895791421	0.0
0.9626	302.564414352	0.0
0.9728	303.225043201	0.0
0.983	303.88418017	0.0
0.9933	304.548268806	0.0
1.0035	305.204417572	0.0
1.0138	305.865495556	0.0
1.024	306.518669666	0.0
1.0342	307.170368731	0.0
1.0445	307.826963587	0.0
1.0547	308.475708168	0.0
1.065	309.129326345	0.0
1.0752	309.775129838	1.0
1.0854	310.41947493	0.0
1.0957	311.068660567	0.0
1.1059	311.710084516	0.0
1.1162	312.356327064	0.0
1.1264	312.994843111	0.0
1.1366	313.631917216	0.0
1.1469	314.273777243	0.0
1.1571	314.907963166	0.0
1.1674	315.546913315	0.0
1.1776	316.178224151	0.0
1.1878	316.808109315	0.0
1.1981	317.442726396	1.0
1.2083	318.06975597	0.0
1.2186	318.701496009	1.0
1.2288	319.325682939	0.0
1.239	319.948460286	0.0
1.2493	320.575916152	0.0
1.2595	321.195870132	0.0
1.2698	321.820481422	0.0
1.28	322.437624835	0.0
1.2902	323.053374571	0.0
1.3005	323.673750033	0.0
1.3107	324.286708261	0.0
1.321	324.904271245	0.0
1.3312	325.514450622	2.0
1.3414	326.123252048	0.0
1.3517	326.736627003	0.0
1.3619	327.342668422	0.0
1.3722	327.953262636	0.0
1.3824	328.556556561	1.0
1.3926	329.158488085	0.0
1.4029	329.764941527	0.0
1.4131	330.364144189	0.0
1.4234	330.96784827	0.0
1.4336	331.564334441	1.0
1.4438	332.159473584	0.0
1.4541	332.75908362	0.0
1.4643	333.351524694	0.0
1.4746	333.948416393	0.0
1.4848	334.53817163	0.0
1.495	335.126595041	0.0
1.5053	335.719438892	0.0
1.5155	336.30519468	0.0
1.5258	336.895350868	0.0
1.536	337.478451127	1.0
1.5462	338.060234586	0.0
1.5565	338.646388606	0.0
1.5667	339.225534545	2.0
1.577	339.80903123	0.0
1.5872	340.385551605	1.0
1.5974	340.960770041	0.0
1.6077	341.540309719	0.0
1.6179	342.112920397	0.0
1.6282	342.689832726	0.0
1.6384	343.259847468	0.0
1.6486	343.828574963	0.0
1.6589	344.401574936	1.0
1.6691	344.967724099	0.0
1.6794	345.538126372	0.0
1.6896	346.101708893	4.0
1.6998	346.664018691	1.0
1.7101	347.230552757	0.0
1.7203	347.790313319	2.0
1.7306	348.354278997	1.0
1.7408	348.91150188	1.0
1.751	349.467466401	1.0
1.7613	350.027607522	0.0
1.7715	350.581051574	1.0
1.7818	351.13865329	0.0
1.792	351.689588298	1.0
1.8022	352.239279145	1.0
1.8125	352.793099461	0.0
1.8227	353.34029828	0.0
1.833	353.891607847	0.0
1.8432	354.436325935	0.0
1.8534	354.979813902	0.0
1.8637	355.527384739	1.0
1.8739	356.068408799	0.0
1.8842	356.613497219	4.0
1.8944	357.152068541	2.0
1.9046	357.689423622	0.0
1.9149	358.230815502	0.0
1.9251	358.765734479	1.0
1.9354	359.304671954	0.0
1.9456	359.837165871	1.0
1.9558	360.368457273	2.0
1.9661	360.90373992	2.0
1.9763	361.432622707	1.0
1.9866	361.965478646	1.0
1.9968	362.491963738	1.0
2.007	363.017259884	4.0
2.0173	363.546502238	0.0
2.0275	364.069416949	2.0
2.0378	364.596259977	2.0
2.048	365.11680405	1.0
2.0582	365.636172592	2.0
2.0685	366.159442812	2.0
2.0787	366.676456793	4.0
2.089	367.197354763	2.0
2.0992	367.712024856	0.0
2.1094	368.225532685	2.0
2.1197	368.742898162	3.0
2.1299	369.254077998	1.0
2.1402	369.769097995	2.0
2.1504	370.277960393	1.0
2.1606	370.785673641	1.0
2.1709	371.297201008	2.0
2.1811	371.802612534	1.0
2.1914	372.311820887	1.0
2.2016	372.814941125	4.0
2.2118	373.31692518	3.0
2.2221	373.822680315	7.0
2.2323	374.322388621	1.0
2.2426	374.825850911	1.0
2.2528	375.323293785	4.0
2.263	375.819613299	3.0
2.2733	376.319661337	6.0
2.2835	376.813730781	2.0
2.2938	377.311511847	4.0
2.304	377.803341423	0.0
2.3142	378.294060315	4.0
2.3245	378.788465657	4.0
2.3347	379.27695987	6.0
2.345	379.769123821	3.0
2.3552	380.255403441	3.0
2.3654	380.74058491	6.0
2.3757	381.22941123	6.0
2.3859	381.712393124	5.0
2.3962	382.199003347	5.0
2.4064	382.679795638	5.0
2.4166	383.159502169	5.0
2.4269	383.642812423	6.0
2.4371	384.120344201	1.0
2.4474	384.601463364	10.0
2.4576	385.076830247	1.0
2.4678	385.551123623	3.0
2.4781	386.028980055	7.0
2.4883	386.501123218	7.0
2.4986	386.976813284	6.0
2.5088	387.446815981	6.0
2.519	387.915757284	5.0
2.5293	388.388221438	5.0
2.5395	388.855036792	8.0
2.5498	389.325359025	11.0
2.56	389.790058067	10.0
2.5702	390.253707693	9.0
2.5805	390.720840415	5.0
2.5907	391.182388081	14.0
2.601	391.647403054	12.0
2.6112	392.106858289	8.0
2.6214	392.56527595	8.0
2.6317	393.027137403	11.0
2.6419	393.483476823	8.0
2.6522	393.943244424	11.0
2.6624	394.397515025	12.0
2.6726	394.85075976	13.0
2.6829	395.307409427	7.0
2.6931	395.758599372	6.0
2.7034	396.213178814	12.0
2.7136	396.662323286	18.0
2.7238	397.110453468	14.0
2.7341	397.56195016	20.0
2.7443	398.008048739	10.0
2.7546	398.457498567	14.0
2.7648	398.901574754	15.0
2.775	399.344648097	12.0
2.7853	399.791049962	12.0
2.7955	400.232114628	13.0
2.8058	400.676492725	15.0
2.816	401.115557821	12.0
2.8262	401.553631388	21.0
2.8365	401.994995916	13.0
2.8467	402.431083473	15.0
2.857	402.870447071	17.0
2.8672	403.304557621	21.0
2.8774	403.737687832	18.0
2.8877	404.174071867	14.0
2.8979	404.605238478	14.0
2.9082	405.039644162	10.0
2.9184	405.468856075	17.0
2.9286	405.897098711	8.0
2.9389	406.328558455	17.0
2.9491	406.754859649	19.0
2.9594	407.184363366	23.0
2.9696	407.60873192	21.0
2.9798	408.032142134	9.0
2.9901	408.458733153	15.0
3.0003	408.880223834	13.0
3.0106	409.304880899	10.0
3.0208	409.724460747	11.0
3.031	410.143093071	13.0
3.0413	410.564870306	9.0
3.0515	410.981604756	18.0
3.0618	411.40146986	10.0
3.072	411.816315041	9.0
3.0822	412.230223388	17.0
3.0925	412.647241159	15.0
3.1027	413.059273049	17.0
3.113	413.474400267	8.0
3.1232	413.884564207	8.0
3.1334	414.293801885	8.0
3.1437	414.706113899	11.0
3.1539	415.113496295	11.0
3.1642	415.523939089	7.0
3.1744	415.929474613	7.0
3.1846	416.334094328	15.0
3.1949	416.741753687	12.0
3.2051	417.144539054	12.0
3.2154	417.550350285	8.0
3.2256	417.951309622	11.0
3.2358	418.351363483	8.0
3.2461	418.754422689	8.0
3.2563	419.152662902	10.0
3.2666	419.553894835	6.0
3.2768	419.950329623	7.0
3.287	420.345869153	6.0
3.2973	420.744380115	12.0
3.3075	421.138126463	13.0
3.3178	421.534830772	10.0
3.328	421.926792068	5.0
3.3382	422.317868208	8.0
3.3485	422.711882249	18.0
3.3587	423.101185443	16.0
3.369	423.493413218	14.0
3.3792	423.880951502	11.0
3.3894	424.26761462	6.0
3.3997	424.657182485	11.0
3.4099	425.042092662	6.0
3.4202	425.429894418	9.0
3.4304	425.813059601	9.0
3.4406	426.195359493	8.0
3.4509	426.580531355	15.0
3.4611	426.961098087	7.0
3.4714	427.344523769	9.0
3.4816	427.723365198	8.0
3.4918	428.1013511	14.0
3.5021	428.482176565	14.0
3.5123	428.858448865	7.0
3.5226	429.237547853	10.0
3.5328	429.612114319	10.0
3.543	429.985834913	12.0
3.5533	430.362363025	13.0
3.5635	430.734389353	8.0
3.5738	431.109210472	9.0
3.584	431.479550215	9.0
3.5942	431.84905363	17.0
3.6045	432.221332884	9.0
3.6147	432.589161152	9.0
3.625	432.959752674	12.0
3.6352	433.325913389	13.0
3.6454	433.691247215	10.0
3.6557	434.059325554	6.0
3.6659	434.423003135	16.0
3.6762	434.789412789	18.0
3.6864	435.151441634	14.0
3.6966	435.51265292	19.0
3.7069	435.876577751	20.0
3.7171	436.236151482	18.0
3.7274	436.598426457	12.0
3.7376	436.956370057	14.0
3.7478	437.313505324	12.0
3.7581	437.673323515	19.0
3.7683	438.028839706	13.0
3.7786	438.387026658	14.0
3.7888	438.740931113	9.0
3.799	439.094036355	13.0
3.8093	439.449794247	20.0
3.8195	439.801298684	9.0
3.8298	440.155443745	12.0
3.84	440.505354633	13.0
3.8502	440.854475327	12.0
3.8605	441.206218738	23.0
3.8707	441.553756691	12.0
3.881	441.903905469	14.0
3.8912	442.249867856	17.0
3.9014	442.595048965	7.0
3.9117	442.942823194	17.0
3.9219	443.286439422	9.0
3.9322	443.632637014	20.0
3.9424	443.974695454	7.0
3.9526	444.315981434	14.0
3.9629	444.659831272	16.0
3.9731	444.999570029	12.0
3.9834	445.341861021	16.0
3.9936	445.680059568	10.0
4.0038	446.017494372	15.0
4.0141	446.357464103	9.0
4.0243	446.693369143	14.0
4.0346	447.031797618	16.0
4.0448	447.366179829	8.0
4.055	447.699806915	17.0
4.0653	448.035940323	12.0
4.0755	448.368054907	16.0
4.0858	448.702664451	15.0
4.096	449.033273391	14.0
4.1062	449.363135726	11.0
4.1165	449.695476101	18.0
4.1267	450.023843002	13.0
4.137	450.35467671	9.0
4.1472	450.681554956	16.0
4.1574	451.007695023	10.0
4.1677	451.336285167	13.0
4.1779	451.660946675	13.0
4.1882	451.988047153	12.0
4.1984	452.311236806	14.0
4.2086	452.633696607	14.0
4.2189	452.95857884	13.0
4.2291	453.279576767	8.0
4.2394	453.602986143	18.0
4.2496	453.922528824	10.0
4.2598	454.24134989	10.0
4.2701	454.562566051	10.0
4.2803	454.87994174	9.0
4.2906	455.199701665	14.0
4.3008	455.515638527	12.0
4.311	455.830861919	16.0
4.3213	456.148453378	19.0
4.3315	456.462247702	14.0
4.3418	456.778399357	9.0
4.352	457.090771091	9.0
4.3622	457.402437405	9.0
4.3725	457.716445065	11.0
4.3827	458.026698437	18.0
4.393	458.33928254	15.0
4.4032	458.648129375	10.0
4.4134	458.956278751	14.0
4.4237	459.266743051	12.0
4.4339	459.573495429	15.0
4.4442	459.882552237	13.0
4.4544	460.187913949	16.0
4.4646	460.492586072	9.0
4.4749	460.799546998	6.0
4.4851	461.102837888	17.0
4.4954	461.408407204	12.0
4.5056	461.710323121	15.0
4.5158	462.01155723	14.0
4.5261	462.315054315	13.0
4.5363	462.614922776	7.0
4.5466	462.917043954	16.0
4.5568	463.215552959	11.0
4.567	463.51338785	20.0
4.5773	463.81346018	6.0
4.5875	464.109944834	14.0
4.5978	464.408656784	18.0
4.608	464.703797321	8.0
4.6182	464.998271352	17.0
4.6285	465.294957573	13.0
4.6387	465.588096603	9.0
4.649	465.883437795	11.0
4.6592	466.175247877	6.0
4.6694	466.466398971	11.0
4.6797	466.759737294	12.0
4.6899	467.049568453	10.0
4.7002	467.341576925	13.0
4.7104	467.630094131	9.0
4.7206	467.917959787	8.0
4.7309	468.207987991	8.0
4.7411	468.494548606	16.0
4.7514	468.783261964	2.0
4.7616	469.068523453	14.0
4.7718	469.353140745	8.0
4.7821	469.639896181	11.0
4.7923	469.923223158	14.0
4.8026	470.208678585	11.0
4.8128	470.490721097	7.0
4.823	470.77212668	19.0
4.8333	471.055646279	11.0
4.8435	471.335776107	11.0
4.8538	471.618010368	13.0
4.864	471.896870225	8.0
4.8742	472.17510034	5.0
4.8845	472.455420618	15.0
4.8947	472.732389374	10.0
4.905	473.011438817	13.0
4.9152	473.287151934	11.0
4.9254	473.562242415	11.0
4.9357	473.839399472	8.0
4.9459	474.113242828	11.0
4.9562	474.389143391	12.0
4.9664	474.661745276	14.0
4.9766	474.933731552	12.0
4.9869	475.207761084	8.0
4.9971	475.478514307	8.0
5.0074	475.751301523	14.0
5.0176	476.020827285	6.0
5.0278	476.289744384	10.0
5.0381	476.560681682	14.0
5.0483	476.828379643	11.0
5.0586	477.098088645	13.0
5.0688	477.364572995	7.0
5.079	477.63045555	8.0
5.0893	477.898335509	6.0
5.0995	478.163012684	7.0
5.1098	478.429678206	8.0
5.12	478.693155464	7.0
5.1302	478.95603772	7.0
5.1405	479.220894838	7.0
5.1507	479.482585314	11.0
5.161	479.746241701	13.0
5.1712	480.006745801	8.0
5.1814	480.266661612	16.0
5.1917	480.528530001	4.0
5.2019	480.787267482	15.0
5.2122	481.047948688	8.0
5.2224	481.30551318	16.0
5.2326	481.562496022	5.0
5.2429	481.821409407	12.0
5.2531	482.077227215	11.0
5.2634	482.334966814	11.0
5.2736	482.589624869	9.0
5.2838	482.843707837	8.0
5.2941	483.099699565	12.0
5.3043	483.352630645	15.0
5.3146	483.607461832	6.0
5.3248	483.859246247	7.0
5.335	484.110462065	7.0
5.3453	484.363565103	13.0
5.3555	484.613642031	12.0
5.3658	484.865597625	6.0
5.376	485.114540827	8.0
5.3862	485.362921848	15.0
5.3965	485.613168794	11.0
5.4067	485.860423777	13.0
5.417	486.109536226	12.0
5.4272	486.355670277	16.0
5.4374	486.60124849	9.0
5.4477	486.848671572	5.0
5.4579	487.093136454	11.0
5.4682	487.339437842	5.0
5.4784	487.58279444	6.0
5.4886	487.825601474	9.0
5.4989	488.070232558	5.0
5.5091	488.311938823	3.0
5.5194	488.55546087	7.0
5.5296	488.796071358	9.0
5.5398	489.036138482	10.0
5.5501	489.278009073	6.0
5.5603	489.516987851	3.0
5.5706	489.75776192	15.0
5.5808	489.995657285	5.0
5.591	490.233015418	11.0
5.6013	490.472156667	13.0
5.6115	490.708438735	8.0
5.6218	490.946495836	9.0
5.632	491.181706716	14.0
5.6422	491.416386427	9.0
5.6525	491.652829133	6.0
5.6627	491.886444921	13.0
5.673	492.121815712	10.0
5.6832	492.354372401	12.0
5.6934	492.586403913	10.0
5.7037	492.820178527	6.0
5.7139	493.051158123	11.0
5.7242	493.283872918	13.0
5.7344	493.513805365	11.0
5.7446	493.743218563	8.0
5.7549	493.974355192	8.0
5.7651	494.202728343	8.0
5.7754	494.432817112	7.0
5.7856	494.660154932	11.0
5.7958	494.88697936	9.0
5.8061	495.115507773	11.0
5.8163	495.341303891	17.0
5.8266	495.568796268	10.0
5.8368	495.793568737	8.0
5.847	496.017833609	10.0
5.8573	496.243783237	7.0
5.8675	496.467031402	4.0
5.8778	496.691956685	5.0
5.888	496.914192753	13.0
5.8982	497.135926951	9.0
5.9085	497.359326893	8.0
5.9187	497.580055858	11.0
5.929	497.802443015	6.0
5.9392	498.022171302	11.0
5.9494	498.241403383	7.0
5.9597	498.462282412	11.0
5.9699	498.680520603	6.0
5.9802	498.900398275	11.0
5.9904	499.117647081	7.0
6.0006	499.33440528	11.0
6.0109	499.552791842	15.0
6.0211	499.768567366	5.0
6.0314	499.985963871	10.0
6.0416	500.200761175	4.0
6.0518	500.415073408	18.0
6.0621	500.630995629	12.0
6.0723	500.844336275	10.0
6.0826	501.059279611	13.0
6.0928	501.271653076	11.0
6.103	501.483546943	7.0
6.1133	501.697032632	9.0
6.1235	501.907965877	5.0
6.1338	502.120483726	8.0
6.144	502.330460703	5.0
6.1542	502.539963495	10.0
6.1645	502.751040146	7.0
6.1747	502.959593155	4.0
6.185	503.169712887	7.0
6.1952	503.37732042	10.0
6.2054	503.584459118	11.0
6.2157	503.793153915	11.0
6.2259	503.999353548	8.0
6.2362	504.207102224	13.0
6.2464	504.41236705	8.0
6.2566	504.617168331	11.0
6.2669	504.823508151	12.0
6.2771	505.027380965	5.0
6.2874	505.232785341	8.0
6.2976	505.435733895	8.0
6.3078	505.638224136	13.0
6.3181	505.842235554	5.0
6.3283	506.043807804	6.0
6.3386	506.246894335	4.0
6.3488	506.447552755	6.0
6.359	506.647758033	3.0
6.3693	506.849467324	9.0
6.3795	507.04876497	9.0
6.3898	507.24955981	8.0
6.4	507.447953939	4.0
6.4102	507.64590004	10.0
6.4205	507.845333181	10.0
6.4307	508.042381891	10.0
6.441	508.2409109	2.0
6.4512	508.437066288	8.0
6.4614	508.632778705	9.0
6.4717	508.829961381	8.0
6.4819	509.024786533	7.0
6.4922	509.22107528	3.0
6.5024	509.41501719	3.0
6.5126	509.608521127	4.0
6.5229	509.803478733	6.0
6.5331	509.996105419	6.0
6.5434	510.190179183	5.0
6.5536	510.381932593	2.0
6.5638	510.573252973	8.0
6.5741	510.766010617	1.0
6.5843	510.956463644	6.0
6.5946	511.14834742	7.0
6.6048	511.337937026	4.0
6.615	511.527098487	6.0
6.6253	511.717680995	4.0
6.6355	511.905984891	3.0
6.6458	512.095703392	3.0
6.656	512.28315361	3.0
6.6662	512.470180515	5.0
6.6765	512.658612432	10.0
6.6867	512.844791449	6.0
6.697	513.032369107	8.0
6.7072	513.21770408	6.0
6.7174	513.402620516	6.0
6.7277	513.588926109	4.0
6.7379	513.773004225	4.0
6.7482	513.958465199	2.0
6.7584	514.141708795	3.0
6.7686	514.324538577	8.0
6.7789	514.508741841	7.0
6.7891	514.690742762	5.0
6.7994	514.874110938	4.0
6.8096	515.055286757	4.0
6.8198	515.236053432	4.0
6.8301	515.418178089	4.0
6.8403	515.598125256	2.0
6.8506	515.779424249	3.0
6.8608	515.958555624	4.0
6.871	516.137282472	2.0
6.8813	516.317351978	4.0
6.8915	516.495268567	3.0
6.9018	516.674521726	3.0
6.912	516.851631728	3.0
6.9222	517.028341767	5.0
6.9325	517.206379314	1.0
6.9427	517.382288236	4.0
6.953	517.559518648	2.0
6.9632	517.734630086	0.0
6.9734	517.909346075	2.0
6.9837	518.085374591	0.0
6.9939	518.259298503	3.0
7.0042	518.434528993	0.0
7.0144	518.607664419	1.0
7.0246	518.780408859	2.0
7.0349	518.954451015	2.0
7.0451	519.126412317	1.0
7.0554	519.299665451	3.0
7.0656	519.470847165	0.0
7.0758	519.641642303	1.0
7.0861	519.813720514	3.0
7.0963	519.983741351	5.0
7.1066	520.155039444	1.0
7.1168	520.324289491	3.0
7.127	520.493157324	0.0
7.1373	520.663293752	1.0
7.1475	520.831396022	3.0
7.1578	521.000761134	1.0
7.168	521.168101311	3.0
7.1782	521.335063588	1.0
7.1885	521.503280144	0.0
7.1987	521.669485496	2.0
7.209	521.836939441	2.0
7.2192	522.002391299	2.0
7.2294	522.167469523	0.0
7.2397	522.333787871	3.0
7.2499	522.498117711	1.0
7.2602	522.663682054	2.0
7.2704	522.827266903	1.0
7.2806	522.990482333	3.0
7.2909	523.154923894	1.0
7.3011	523.317399385	3.0
7.3114	523.481095449	2.0
7.3216	523.642834356	1.0
7.3318	523.804208013	1.0
7.3421	523.966793965	0.0
7.3523	524.127436033	2.0
7.3626	524.2892849	0.0
7.3728	524.449198696	0.0
7.383	524.608751363	2.0
7.3933	524.769502645	0.0
7.4035	524.928331979	0.0
7.4138	525.088354493	0.0
7.424	525.246463773	0.0
7.4342	525.404215998	0.0
7.4445	525.563153313	1.0
7.4547	525.720190368	1.0
7.465	525.878407139	0.0
7.4752	526.034732265	2.0
7.4854	526.190704366	1.0
7.4957	526.347848184	1.0
7.5059	526.503113184	0.0
7.5162	526.659544588	0.0
7.5264	526.814105693	1.0
7.5366	526.968317757	3.0
7.5469	527.123688316	1.0
7.5571	527.277201258	0.0
7.5674	527.431867442	1.0
7.5776	527.584684432	1.0
7.5878	527.73715632	2.0
7.5981	527.890773629	0.0
7.6083	528.042554284	0.0
7.6186	528.195475168	0.0
7.6288	528.346567724	0.0
7.639	528.497319072	0.0
7.6493	528.649202916	1.0
7.6595	528.799270831	0.0
7.6698	528.950466109	0.0
7.68	529.09985369	0.0
7.6902	529.248903913	0.0
7.7005	529.399073854	0.0
7.7107	529.547448356	1.0
7.721	529.6969375	2.0
7.7312	529.844639346	1.0
7.7414	529.99200764	0.0
7.7517	530.140483017	0.0
7.7619	530.287183216	0.0
7.7722	530.434985478	0.0
7.7824	530.581020611	1.0
7.7926	530.726725957	1.0
7.8029	530.873525891	0.0
7.8131	531.018570681	0.0
7.8234	531.164705097	0.0
7.8336	531.309092324	1.0
7.8438	531.453153485	1.0
7.8541	531.598296885	0.0
7.8643	531.741704944	0.0
7.8746	531.886190334	0.0
7.8848	532.028948252	0.0
7.895	532.171383783	1.0
7.9053	532.314889339	1.0
7.9155	532.456679138	1.0
7.9258	532.59953411	1.0
7.936	532.740681104	1.0
7.9462	532.881509349	0.0
7.9565	533.023395544	1.0
7.9667	533.163585343	1.0
7.977	533.304828296	1.0
7.9872	533.444382543	0.0
7.9974	533.583621639	0.0
8.0077	533.723906747	2.0
8.0179	533.862514601	0.0
8.0282	534.002163726	0.0
8.0384	534.1401432	0.0
8.0486	534.277811079	0.0
8.0589	534.416513167	1.0
8.0691	534.553556927	1.0
8.0794	534.691630208	0.0
8.0896	534.828052679	0.0
