TL-DOS Lehrstuhlversuch
detector=R1408304
job_number=2015-11-19-010
irradiation_dose [mSv]=5.0

[BEGIN DATA]
time [sec] 	 temperature [K] 	 photoncount 
0.0	201.382251773	0.0
0.0102	202.329789383	0.0
0.0205	203.284172775	4.0
0.0307	204.226876406	1.0
0.041	205.176390895	2.0
0.0512	206.114285208	2.0
0.0614	207.049795741	2.0
0.0717	207.992065164	0.0
0.0819	208.922803076	1.0
0.0922	209.860265396	2.0
0.1024	210.786255035	4.0
0.1126	211.709891151	0.0
0.1229	212.640200366	1.0
0.1331	213.55912444	3.0
0.1434	214.484687569	1.0
0.1536	215.398923639	2.0
0.1638	216.31083606	2.0
0.1741	217.229336878	1.0
0.1843	218.136597066	1.0
0.1946	219.050412041	0.0
0.2048	219.95304373	1.0
0.215	220.853381264	0.0
0.2253	221.76022357	1.0
0.2355	222.655967922	1.0
0.2458	223.55818386	0.0
0.256	224.449358463	0.0
0.2662	225.338268031	0.0
0.2765	226.233599804	0.0
0.2867	227.117974491	1.0
0.297	228.00873862	0.0
0.3072	228.888601561	0.0
0.3174	229.766228216	2.0
0.3277	230.650195561	2.0
0.3379	231.523344897	0.0
0.3482	232.402802575	1.0
0.3584	233.271497432	2.0
0.3686	234.13798439	1.0
0.3789	235.010731554	0.0
0.3891	235.872798022	1.0
0.3994	236.741092761	1.0
0.4096	237.598761291	1.0
0.4198	238.454249946	2.0
0.4301	239.315919348	0.0
0.4403	240.167043623	3.0
0.4506	241.024317114	3.0
0.4608	241.871099274	2.0
0.471	242.715729229	1.0
0.4813	243.566461477	0.0
0.4915	244.406782449	0.0
0.5018	245.253174583	0.0
0.512	246.089208554	6.0
0.5222	246.923117637	2.0
0.5325	247.763051558	0.0
0.5427	248.592706351	1.0
0.553	249.428355247	2.0
0.5632	250.253777455	1.0
0.5734	251.077101746	2.0
0.5837	251.906374402	3.0
0.5939	252.725498403	1.0
0.6042	253.550540423	1.0
0.6144	254.365485563	0.0
0.6246	255.178359415	2.0
0.6349	255.997106129	1.0
0.6451	256.805833006	1.0
0.6554	257.620402783	0.0
0.6656	258.425003841	0.0
0.6758	259.2275599	0.0
0.6861	260.035914278	0.0
0.6963	260.834376	1.0
0.7066	261.63860646	0.0
0.7168	262.432994731	3.0
0.727	263.225363963	2.0
0.7373	264.023457914	1.0
0.7475	264.811784777	1.0
0.7578	265.605807155	1.0
0.768	266.390112272	0.0
0.7782	267.172423975	0.0
0.7885	267.960387736	1.0
0.7987	268.738708381	1.0
0.809	269.522652248	2.0
0.8192	270.297002196	0.0
0.8294	271.069384032	1.0
0.8397	271.847346184	6.0
0.8499	272.61578762	1.0
0.8602	273.389780903	2.0
0.8704	274.154302042	2.0
0.8806	274.916880051	2.0
0.8909	275.684967544	3.0
0.9011	276.443655168	0.0
0.9114	277.207824169	1.0
0.9216	277.962641256	1.0
0.9318	278.715539877	0.0
0.9421	279.473878051	1.0
0.9523	280.222935667	0.0
0.9626	280.977405086	0.0
0.9728	281.722641294	2.0
0.983	282.465983388	0.0
0.9933	283.21469599	1.0
1.0035	283.954245833	2.0
1.0138	284.699138786	1.0
1.024	285.434915725	2.0
1.0342	286.168822592	0.0
1.0445	286.908031799	2.0
1.0547	287.63819455	2.0
1.065	288.373632592	4.0
1.0752	289.100070329	0.0
1.0854	289.82466173	2.0
1.0957	290.554488169	1.0
1.1059	291.275382979	2.0
1.1162	292.001486119	1.0
1.1264	292.718703196	3.0
1.1366	293.434097373	3.0
1.1469	294.154660139	0.0
1.1571	294.866404645	1.0
1.1674	295.583291373	2.0
1.1776	296.291404827	1.0
1.1878	296.997718519	0.0
1.1981	297.709135196	1.0
1.2083	298.411845543	2.0
1.2186	299.119632841	1.0
1.2288	299.818758225	0.0
1.239	300.516106691	2.0
1.2493	301.21849337	2.0
1.2595	301.912284228	2.0
1.2698	302.611087596	1.0
1.28	303.301338995	1.0
1.2902	303.989836031	2.0
1.3005	304.68330733	4.0
1.3107	305.368291913	4.0
1.321	306.058225384	3.0
1.3312	306.739715435	1.0
1.3414	307.419473391	1.0
1.3517	308.104142472	0.0
1.3619	308.78043256	3.0
1.3722	309.461608718	0.0
1.3824	310.13444863	4.0
1.3926	310.805578431	3.0
1.4029	311.481557021	1.0
1.4131	312.149262972	1.0
1.4234	312.821792974	2.0
1.4336	313.486092542	2.0
1.4438	314.148703706	3.0
1.4541	314.816102112	5.0
1.4643	315.475332885	2.0
1.4746	316.139326477	2.0
1.4848	316.795194103	3.0
1.495	317.449394756	3.0
1.5053	318.108321888	3.0
1.5155	318.759185057	2.0
1.5258	319.414750591	3.0
1.536	320.062293302	3.0
1.5462	320.708190199	0.0
1.5565	321.358753582	2.0
1.5667	322.001355357	1.0
1.577	322.648599811	5.0
1.5872	323.287923274	3.0
1.5974	323.925621815	6.0
1.6077	324.567927609	4.0
1.6179	325.202372852	4.0
1.6282	325.841401845	4.0
1.6384	326.472610388	9.0
1.6486	327.102214634	4.0
1.6589	327.736367653	8.0
1.6691	328.362759895	9.0
1.6794	328.993677705	4.0
1.6896	329.616874331	9.0
1.6998	330.238487021	7.0
1.7101	330.864590748	5.0
1.7203	331.483032206	7.0
1.7306	332.105941788	7.0
1.7408	332.721228192	6.0
1.751	333.334950764	6.0
1.7613	333.953107369	7.0
1.7715	334.563698961	6.0
1.7818	335.178701964	15.0
1.792	335.786178549	8.0
1.8022	336.392111153	9.0
1.8125	337.002421508	8.0
1.8227	337.605262873	7.0
1.833	338.212459655	11.0
1.8432	338.812225552	9.0
1.8534	339.410467065	13.0
1.8637	340.013030762	7.0
1.8739	340.608220274	11.0
1.8842	341.207709919	12.0
1.8944	341.799862998	16.0
1.9046	342.390511044	8.0
1.9149	342.985426412	13.0
1.9251	343.573061194	10.0
1.9354	344.164941529	10.0
1.9456	344.749578421	11.0
1.9558	345.332729382	13.0
1.9661	345.920093501	11.0
1.9763	346.500269446	18.0
1.9866	347.084637055	8.0
1.9968	347.661853162	12.0
2.007	348.2376022	24.0
2.0173	348.817510917	17.0
2.0275	349.390322701	14.0
2.0378	349.967272943	16.0
2.048	350.537162457	25.0
2.0582	351.105603524	26.0
2.0685	351.678151471	25.0
2.0787	352.243692566	13.0
2.089	352.81331959	39.0
2.0992	353.375975508	21.0
2.1094	353.937201362	35.0
2.1197	354.50248197	25.0
2.1299	355.060844662	26.0
2.1402	355.623241422	29.0
2.1504	356.178755559	21.0
2.1606	356.732857785	37.0
2.1709	357.290963296	37.0
2.1811	357.842238702	31.0
2.1914	358.39749697	32.0
2.2016	358.945959977	26.0
2.2118	359.493028994	36.0
2.2221	360.044050483	45.0
2.2323	360.588328561	43.0
2.2426	361.136538947	43.0
2.2528	361.678040323	44.0
2.263	362.218165404	44.0
2.2733	362.762192788	52.0
2.2835	363.299562355	54.0
2.2938	363.840814317	56.0
2.304	364.375442427	45.0
2.3142	364.908711711	65.0
2.3245	365.445833766	53.0
2.3347	365.976382511	66.0
2.345	366.510764372	92.0
2.3552	367.038606458	82.0
2.3654	367.565106965	77.0
2.3757	368.09541134	77.0
2.3859	368.619225841	93.0
2.3962	369.146824803	103.0
2.4064	369.667967	76.0
2.4166	370.187784646	98.0
2.4269	370.711357878	96.0
2.4371	371.228523611	117.0
2.4474	371.749425771	109.0
2.4576	372.263953119	131.0
2.4678	372.77717273	137.0
2.4781	373.294100258	135.0
2.4883	373.804701616	125.0
2.4986	374.318991974	142.0
2.5088	374.826988438	139.0
2.519	375.333693762	165.0
2.5293	375.844059938	165.0
2.5395	376.348180243	170.0
2.5498	376.855942724	185.0
2.56	377.357491198	163.0
2.5702	377.857764922	165.0
2.5805	378.36165303	195.0
2.5907	378.859374546	190.0
2.601	379.360692007	201.0
2.6112	379.855874336	212.0
2.6214	380.349798095	234.0
2.6317	380.847290361	196.0
2.6419	381.338694308	234.0
2.6522	381.833648557	259.0
2.6624	382.322545546	245.0
2.6726	382.81019994	247.0
2.6829	383.301377547	259.0
2.6931	383.786544112	268.0
2.7034	384.275215916	280.0
2.7136	384.757907346	281.0
2.7238	385.239371952	290.0
2.7341	385.724315051	322.0
2.7443	386.203323407	343.0
2.7546	386.685792509	347.0
2.7648	387.162357145	342.0
2.775	387.637710531	351.0
2.7853	388.116498256	371.0
2.7955	388.589426568	421.0
2.8058	389.0657717	418.0
2.816	389.53628731	445.0
2.8262	390.005607045	404.0
2.8365	390.478317527	447.0
2.8467	390.945242969	475.0
2.857	391.415541861	497.0
2.8672	391.880085226	469.0
2.8774	392.343447894	542.0
2.8877	392.810158271	555.0
2.8979	393.271157038	548.0
2.9082	393.735486435	504.0
2.9184	394.19413336	568.0
2.9286	394.651614575	636.0
2.9389	395.112401006	570.0
2.9491	395.567548324	615.0
2.9594	396.025983998	620.0
2.9696	396.478809326	612.0
2.9798	396.930483741	649.0
2.9901	397.385421419	647.0
3.0003	397.834791561	642.0
3.0106	398.287408319	716.0
3.0208	398.734485945	679.0
3.031	399.180427265	700.0
3.0413	399.629590428	726.0
3.0515	400.073256723	726.0
3.0618	400.520128426	740.0
3.072	400.961531304	742.0
3.0822	401.401812299	769.0
3.0925	401.845274243	719.0
3.1027	402.283309091	722.0
3.113	402.724508659	729.0
3.1232	403.160308819	753.0
3.1334	403.595001336	731.0
3.1437	404.032834426	724.0
3.1539	404.465309306	812.0
3.1642	404.900908737	733.0
3.1744	405.331177294	737.0
3.1846	405.760352268	766.0
3.1949	406.192627951	759.0
3.2051	406.619613436	734.0
3.2154	407.049683812	691.0
3.2256	407.474490978	706.0
3.2358	407.898218442	727.0
3.2461	408.325007258	688.0
3.2563	408.746573025	723.0
3.2666	409.171184526	714.0
3.2768	409.590599623	685.0
3.287	410.008948722	660.0
3.2973	410.430320316	669.0
3.3075	410.846535157	637.0
3.3178	411.265757072	702.0
3.328	411.679848542	630.0
3.3382	412.092887544	633.0
3.3485	412.508910677	575.0
3.3587	412.91984251	575.0
3.369	413.33374325	572.0
3.3792	413.742578665	559.0
3.3894	414.150374971	488.0
3.3997	414.56111753	496.0
3.4099	414.966833414	518.0
3.4202	415.375480519	495.0
3.4304	415.779126594	486.0
3.4406	416.18174675	457.0
3.4509	416.587275762	443.0
3.4611	416.987841901	395.0
3.4714	417.391302057	416.0
3.4816	417.78982466	381.0
3.4918	418.187334366	427.0
3.5021	418.587716006	396.0
3.5123	418.983197768	429.0
3.5226	419.381536812	371.0
3.5328	419.775000975	348.0
3.543	420.167465098	327.0
3.5533	420.562764701	345.0
3.5635	420.953226621	304.0
3.5738	421.346509555	341.0
3.584	421.734979485	347.0
3.5942	422.122462069	303.0
3.6045	422.512744142	325.0
3.6147	422.898249936	313.0
3.625	423.286540937	334.0
3.6352	423.670080026	365.0
3.6454	424.052644301	367.0
3.6557	424.437972531	363.0
3.6659	424.818585108	366.0
3.6762	425.201947539	344.0
3.6864	425.580618374	379.0
3.6966	425.958326767	370.0
3.7069	426.338764034	365.0
3.7171	426.714545502	386.0
3.7274	427.093041922	384.0
3.7376	427.466906295	384.0
3.7478	427.839820444	412.0
3.7581	428.215428827	424.0
3.7683	428.586440509	436.0
3.7786	428.960132681	449.0
3.7888	429.3292516	440.0
3.799	429.697432357	434.0
3.8093	430.068273151	438.0
3.8195	430.434575588	441.0
3.8298	430.803524492	429.0
3.84	431.167958193	454.0
3.8502	431.531465638	454.0
3.8605	431.897599357	476.0
3.8707	432.259252325	485.0
3.881	432.623518168	540.0
3.8912	432.983326119	533.0
3.9014	433.342219571	500.0
3.9117	433.703705962	548.0
3.9219	434.060768475	554.0
3.9322	434.420410699	529.0
3.9424	434.775651614	537.0
3.9526	435.129989639	566.0
3.9629	435.48688769	566.0
3.9731	435.839418016	565.0
3.9834	436.194495308	597.0
3.9936	436.545227157	623.0
4.0038	436.895067576	587.0
4.0141	437.247435527	630.0
4.0243	437.595491193	552.0
4.0346	437.946061495	620.0
4.0448	438.292341512	619.0
4.055	438.637741414	595.0
4.0653	438.985636765	598.0
4.0755	439.329274567	635.0
4.0858	439.675395087	594.0
4.096	440.017279779	651.0
4.1062	440.358295526	662.0
4.1165	440.701775048	617.0
4.1267	441.041051062	628.0
4.137	441.382778282	675.0
4.1472	441.720323437	651.0
4.1574	442.057010678	732.0
4.1677	442.396130422	701.0
4.1779	442.731100011	666.0
4.1882	443.068489694	666.0
4.1984	443.401750396	701.0
4.2086	443.734164072	718.0
4.2189	444.068979375	677.0
4.2291	444.399697202	661.0
4.2394	444.732804404	683.0
4.2496	445.061835034	652.0
4.2598	445.39002939	667.0
4.2701	445.720594889	698.0
4.2803	446.047114921	672.0
4.2906	446.375994	671.0
4.3008	446.700848251	718.0
4.311	447.024876842	647.0
4.3213	447.35124648	727.0
4.3315	447.673622	659.0
4.3418	447.998326623	662.0
4.352	448.319057504	680.0
4.3622	448.638973207	660.0
4.3725	448.961200241	649.0
4.3827	449.279483855	663.0
4.393	449.600067009	656.0
4.4032	449.916726859	641.0
4.4134	450.232581878	661.0
4.4237	450.550718891	641.0
4.4339	450.864962537	635.0
4.4442	451.181476535	649.0
4.4544	451.494117028	613.0
4.4646	451.805962906	651.0
4.4749	452.120061811	593.0
4.4851	452.430316769	687.0
4.4954	452.742813261	588.0
4.5056	453.051485414	586.0
4.5158	453.359373038	648.0
4.5261	453.669485093	624.0
4.5363	453.97580199	579.0
4.5466	454.28433197	565.0
4.5568	454.589086154	586.0
4.567	454.893065766	582.0
4.5773	455.199241574	541.0
4.5875	455.501670397	585.0
4.5978	455.806284212	564.0
4.608	456.107170157	554.0
4.6182	456.407291362	581.0
4.6285	456.709580886	546.0
4.6387	457.008170986	551.0
4.649	457.308918344	517.0
4.6592	457.605985149	556.0
4.6694	457.902296921	533.0
4.6797	458.200749491	533.0
4.6899	458.495549592	540.0
4.7002	458.79247957	551.0
4.7104	459.085775712	504.0
4.7206	459.378326405	525.0
4.7309	459.672990721	579.0
4.7411	459.964048931	543.0
4.7514	460.257209982	584.0
4.7616	460.546783322	544.0
4.7718	460.835620674	545.0
4.7821	461.126544823	560.0
4.7923	461.413908636	504.0
4.8026	461.703348599	536.0
4.8128	461.989246391	503.0
4.823	462.274417536	539.0
4.8333	462.56164899	571.0
4.8435	462.8453653	504.0
4.8538	463.131131407	524.0
4.864	463.413400304	537.0
4.8742	463.694951777	551.0
4.8845	463.978537408	507.0
4.8947	464.258652512	541.0
4.905	464.540791396	567.0
4.9152	464.819477459	546.0
4.9254	465.097455205	526.0
4.9357	465.377441288	565.0
4.9459	465.654000897	499.0
4.9562	465.932558598	548.0
4.9664	466.207707304	571.0
4.9766	466.482156684	528.0
4.9869	466.758588909	534.0
4.9971	467.031638152	539.0
5.0074	467.306660125	575.0
5.0176	467.578316374	550.0
5.0278	467.849282173	548.0
5.0381	468.12220565	524.0
5.0483	468.391789084	513.0
5.0586	468.663320209	561.0
5.0688	468.93152833	545.0
5.079	469.199054766	514.0
5.0893	469.46851403	523.0
5.0995	469.734675647	559.0
5.1098	470.002760232	525.0
5.12	470.267563993	565.0
5.1302	470.531694721	528.0
5.1405	470.797733744	523.0
5.1507	471.060516977	531.0
5.161	471.32519877	529.0
5.1712	471.586641382	535.0
5.1814	471.847419503	581.0
5.1917	472.110081698	533.0
5.2019	472.369529429	561.0
5.2122	472.63085162	560.0
5.2224	472.888975746	554.0
5.2326	473.146443816	542.0
5.2429	473.405772045	527.0
5.2531	473.661926611	529.0
5.2634	473.919931845	529.0
5.2736	474.174779606	503.0
5.2838	474.428979639	538.0
5.2941	474.68501622	541.0
5.3043	474.93791942	524.0
5.3146	475.192649799	522.0
5.3248	475.444262783	522.0
5.335	475.695236259	542.0
5.3453	475.948022973	556.0
5.3555	476.197716078	495.0
5.3658	476.449213169	545.0
5.376	476.697632434	542.0
5.3862	476.945420309	531.0
5.3965	477.194998406	531.0
5.4067	477.441522161	509.0
5.417	477.689827004	538.0
5.4272	477.935093088	519.0
5.4374	478.179735797	523.0
5.4477	478.426146004	479.0
5.4579	478.669540637	493.0
5.4682	478.914693752	514.0
5.4784	479.156846679	492.0
5.4886	479.398384142	521.0
5.4989	479.641666669	507.0
5.5091	479.881971899	497.0
5.5194	480.124013291	518.0
5.5296	480.363092575	496.0
5.5398	480.601564208	483.0
5.5501	480.841758754	482.0
5.5603	481.079013795	451.0
5.5706	481.317982959	493.0
5.5808	481.554027615	451.0
5.591	481.789472332	480.0
5.6013	482.026618094	540.0
5.6115	482.260861661	511.0
5.6218	482.496797594	480.0
5.632	482.72984614	489.0
5.6422	482.962302362	500.0
5.6525	483.196438037	517.0
5.6627	483.427708355	479.0
5.673	483.660649558	511.0
5.6832	483.890740023	521.0
5.6934	484.120245682	492.0
5.7037	484.351409478	474.0
5.7139	484.579744286	514.0
5.7242	484.809728772	489.0
5.7344	485.036898702	511.0
5.7446	485.263491251	501.0
5.7549	485.491720889	468.0
5.7651	485.717157448	450.0
5.7754	485.944222745	433.0
5.7856	486.168509212	464.0
5.7958	486.392225626	463.0
5.8061	486.617558349	483.0
5.8163	486.840133447	452.0
5.8266	487.064316608	463.0
5.8368	487.285756211	443.0
5.847	487.506632997	487.0
5.8573	487.729105577	489.0
5.8675	487.948855533	488.0
5.8778	488.170193142	472.0
5.888	488.388822016	472.0
5.8982	488.606895218	482.0
5.9085	488.826543957	465.0
5.9187	489.043504631	470.0
5.929	489.262032806	524.0
5.9392	489.477886629	472.0
5.9494	489.693191831	481.0
5.9597	489.910052573	451.0
5.9699	490.12425937	449.0
5.9802	490.34001377	489.0
5.9904	490.553127765	427.0
6.0006	490.765700102	475.0
6.0109	490.979808235	477.0
6.0211	491.191296109	518.0
6.0314	491.404311944	430.0
6.0416	491.614720886	448.0
6.0518	491.824595047	478.0
6.0621	492.03598551	462.0
6.0723	492.244788972	471.0
6.0826	492.455101001	436.0
6.0928	492.662839227	449.0
6.103	492.870049459	458.0
6.1133	493.078756747	468.0
6.1235	493.284909871	474.0
6.1338	493.492552413	458.0
6.144	493.697653821	443.0
6.1542	493.902233938	472.0
6.1645	494.108292108	472.0
6.1747	494.311828535	471.0
6.185	494.516835474	455.0
6.1952	494.719333534	518.0
6.2054	494.92131692	457.0
6.2157	495.124759598	448.0
6.2259	495.32571254	504.0
6.2362	495.52811733	449.0
6.2464	495.728045087	507.0
6.2566	495.927464701	516.0
6.2669	496.128325085	498.0
6.2771	496.326727336	472.0
6.2874	496.526563006	489.0
6.2976	496.723953083	480.0
6.3078	496.920841468	464.0
6.3181	497.119152335	508.0
6.3283	497.31503627	453.0
6.3386	497.51233543	480.0
6.3488	497.707220038	508.0
6.359	497.901609323	470.0
6.3693	498.097403034	490.0
6.3795	498.290800618	483.0
6.3898	498.485595463	472.0
6.4	498.678006406	445.0
6.4102	498.869928311	467.0
6.4205	499.063236816	495.0
6.4307	499.254179608	474.0
6.441	499.446501926	442.0
6.4512	499.6364706	464.0
6.4614	499.825956444	482.0
6.4717	500.016811288	459.0
6.4819	500.205330447	447.0
6.4922	500.395211622	454.0
6.5024	500.582769027	480.0
6.5126	500.769849731	496.0
6.5229	500.958282058	457.0
6.5331	501.144408347	423.0
6.5434	501.331879364	458.0
6.5536	501.517056107	440.0
6.5638	501.701762199	445.0
6.5741	501.887802758	421.0
6.5843	502.07156655	447.0
6.5946	502.256658	447.0
6.6048	502.439484298	480.0
6.615	502.62184592	448.0
6.6253	502.80552507	464.0
6.6355	502.986956351	430.0
6.6458	503.16969844	407.0
6.656	503.350204127	426.0
6.6662	503.530251036	452.0
6.6765	503.71159875	436.0
6.6867	503.890727128	438.0
6.697	504.071149674	405.0
6.7072	504.249364207	397.0
6.7174	504.427125784	400.0
6.7277	504.606171655	429.0
6.7379	504.783026359	388.0
6.7482	504.961158806	391.0
6.7584	505.137111265	398.0
6.7686	505.312616517	397.0
6.7789	505.489389763	387.0
6.7891	505.663999654	428.0
6.7994	505.839871069	403.0
6.8096	506.013590167	410.0
6.8198	506.186867735	389.0
6.8301	506.361397201	389.0
6.8403	506.533790772	389.0
6.8506	506.707429855	383.0
6.8608	506.878943939	359.0
6.871	507.050022098	387.0
6.8813	507.222336265	375.0
6.8915	507.392541648	361.0
6.9018	507.563976733	352.0
6.912	507.733313793	334.0
6.9222	507.90222046	369.0
6.9325	508.072347447	313.0
6.9427	508.240392416	347.0
6.953	508.409651479	323.0
6.9632	508.576839146	316.0
6.9734	508.743601885	302.0
6.9837	508.911569453	331.0
6.9939	509.077481431	317.0
7.0042	509.244592092	315.0
7.0144	509.409657649	256.0
7.0246	509.574303671	282.0
7.0349	509.74013923	287.0
7.0451	509.903945291	291.0
7.0554	510.068934819	299.0
7.0656	510.231905203	261.0
7.0758	510.394461376	288.0
7.0861	510.558191988	273.0
7.0963	510.719918861	272.0
7.1066	510.882814181	267.0
7.1168	511.043715984	255.0
7.127	511.204208835	263.0
7.1373	511.365861217	221.0
7.1475	511.525535294	246.0
7.1578	511.686362987	232.0
7.168	511.845222467	265.0
7.1782	512.003678186	245.0
7.1885	512.163278717	245.0
7.1987	512.320926054	221.0
7.209	512.479712364	220.0
7.2192	512.636555444	209.0
7.2294	512.792999887	202.0
7.2397	512.950574612	196.0
7.2499	513.106220935	212.0
7.2602	513.262991773	182.0
7.2704	513.417844047	189.0
7.2806	513.572302743	182.0
7.2909	513.727877375	189.0
7.3011	513.881548082	189.0
7.3114	514.036329031	175.0
7.3216	514.189215768	182.0
7.3318	514.341713924	186.0
7.3421	514.49531385	158.0
7.3523	514.647034017	151.0
7.3626	514.799850335	155.0
7.3728	514.950796483	140.0
7.383	515.101358983	128.0
7.3933	515.253009268	169.0
7.4035	515.402803655	119.0
7.4138	515.553680278	140.0
7.424	515.70271047	112.0
7.4342	515.851361882	119.0
7.4445	516.001087273	137.0
7.4547	516.148980322	136.0
7.465	516.297941871	108.0
7.4752	516.445080426	111.0
7.4854	516.591845009	111.0
7.4957	516.739669939	103.0
7.5059	516.885685784	112.0
7.5162	517.032756567	121.0
7.5264	517.178027495	93.0
7.5366	517.322929198	100.0
7.5469	517.468877789	100.0
7.5571	517.613040258	89.0
7.5674	517.758244274	88.0
7.5776	517.901671281	100.0
7.5878	518.044733749	77.0
7.5981	518.188829818	78.0
7.6083	518.331162435	98.0
7.6186	518.47452338	81.0
7.6288	518.616129871	75.0
7.639	518.75737645	79.0
7.6493	518.89964351	76.0
7.6595	519.040169502	63.0
7.6698	519.181710769	61.0
7.68	519.321519851	70.0
7.6902	519.46097359	46.0
7.7005	519.601434857	50.0
7.7107	519.740177156	65.0
7.721	519.879921842	53.0
7.7312	520.01795633	69.0
7.7414	520.155639986	52.0
7.7517	520.29431838	54.0
