TL-DOS Lehrstuhlversuch
detector=R1407502
job_number=2015-11-02-007
irradiation_dose [mSv]=0.3

[BEGIN DATA]
time [sec] 	 temperature [K] 	 photoncount 
0.0	95.3655878094	0.0
0.0102	97.4447755575	0.0
0.0205	99.5345959359	1.0
0.0307	101.594514687	3.0
0.041	103.664967531	0.0
0.0512	105.705795862	3.0
0.0614	107.737191563	1.0
0.0717	109.778975493	3.0
0.0819	111.791545113	1.0
0.0922	113.814406689	1.0
0.1024	115.808324699	2.0
0.1126	117.793026897	1.0
0.1229	119.787878541	1.0
0.1331	121.754187392	0.0
0.1434	123.73055163	3.0
0.1536	125.678637597	0.0
0.1638	127.617719584	3.0
0.1741	129.566717724	0.0
0.1843	131.487829154	1.0
0.1946	133.418764837	0.0
0.2048	135.322072252	0.0
0.215	137.216582652	0.0
0.2253	139.120781273	0.0
0.2355	140.997734185	0.0
0.2458	142.884285531	0.0
0.256	144.74384367	0.0
0.2662	146.594807002	0.0
0.2765	148.455235862	1.0
0.2867	150.289045281	0.0
0.297	152.132232505	0.0
0.3072	153.949046986	0.0
0.3174	155.757464219	0.0
0.3277	157.575129406	0.0
0.3379	159.366787025	0.0
0.3482	161.167606891	2.0
0.3584	162.942660216	1.0
0.3686	164.709509312	0.0
0.3789	166.485393789	2.0
0.3891	168.235868505	0.0
0.3994	169.995294867	0.0
0.4096	171.729546954	0.0
0.4198	173.455783395	0.0
0.4301	175.19084753	0.0
0.4403	176.901085971	0.0
0.4506	178.620070295	0.0
0.4608	180.314458999	0.0
0.471	182.001016304	0.0
0.4813	183.69619839	0.0
0.4915	185.367125423	0.0
0.5018	187.046597308	0.0
0.512	188.702038926	0.0
0.5222	190.349829156	2.0
0.5325	192.006045918	0.0
0.5427	193.638565154	0.0
0.553	195.279432829	1.0
0.5632	196.896822595	1.0
0.5734	198.506736847	0.0
0.5837	200.12488394	0.0
0.5939	201.719878216	0.0
0.6042	203.323029034	1.0
0.6144	204.903241605	0.0
0.6246	206.476150494	1.0
0.6349	208.057102984	0.0
0.6451	209.615434846	0.0
0.6554	211.181735765	0.0
0.6656	212.725625693	1.0
0.6758	214.262379821	0.0
0.6861	215.806992661	0.0
0.6963	217.329504828	1.0
0.7066	218.859802876	0.0
0.7168	220.36820507	0.0
0.727	221.869635488	0.0
0.7373	223.378743977	3.0
0.7475	224.866259798	1.0
0.7578	226.361382535	2.0
0.768	227.835112714	0.0
0.7782	229.302031369	1.0
0.7885	230.776451609	1.0
0.7987	232.229775507	1.0
0.809	233.690531469	0.0
0.8192	235.130386602	0.0
0.8294	236.563586779	0.0
0.8397	238.00411611	0.0
0.8499	239.424034019	0.0
0.8602	240.851213158	0.0
0.8704	242.257971893	0.0
0.8806	243.658228642	0.0
0.8909	245.065646079	0.0
0.9011	246.452925865	0.0
0.9114	247.847299976	1.0
0.9216	249.221723064	0.0
0.9318	250.589793621	0.0
0.9421	251.96486027	1.0
0.9523	253.320252152	1.0
0.9626	254.682575288	0.0
0.9728	256.025405995	1.0
0.983	257.362030189	1.0
0.9933	258.705489663	1.0
1.0035	260.029726612	0.0
1.0138	261.360735496	0.0
1.024	262.6727	1.0
1.0342	263.978600654	0.0
1.0445	265.291179474	1.0
1.0547	266.584977616	0.0
1.065	267.885392033	0.0
1.0752	269.167199824	0.0
1.0854	270.443083148	0.0
1.0957	271.725491133	0.0
1.1059	272.989550132	1.0
1.1162	274.260073325	0.0
1.1264	275.512417581	0.0
1.1366	276.758973551	2.0
1.1469	278.011904206	0.0
1.1571	279.246907643	2.0
1.1674	280.488226689	0.0
1.1776	281.711784658	0.0
1.1878	282.92968739	0.0
1.1981	284.153818279	1.0
1.2083	285.360434023	1.0
1.2186	286.573220206	0.0
1.2288	287.768653568	2.0
1.239	288.958561682	0.0
1.2493	290.154554793	4.0
1.2595	291.333435363	3.0
1.2698	292.518344537	1.0
1.28	293.68629976	0.0
1.2902	294.848856739	2.0
1.3005	296.017358847	1.0
1.3107	297.169141759	1.0
1.321	298.326814704	1.0
1.3312	299.4679234	1.0
1.3414	300.603757934	1.0
1.3517	301.745400944	1.0
1.3619	302.870709064	1.0
1.3722	304.001771829	0.0
1.3824	305.116651089	2.0
1.3926	306.22637742	2.0
1.4029	307.341778712	2.0
1.4131	308.441220588	2.0
1.4234	309.546284831	0.0
1.4336	310.635537564	1.0
1.4438	311.719755812	2.0
1.4541	312.809518577	0.0
1.4643	313.883688768	1.0
1.4746	314.963352091	0.0
1.4848	316.027567345	0.0
1.495	317.086863837	1.0
1.5053	318.1515774	1.0
1.5155	319.201056799	1.0
1.5258	320.255903065	2.0
1.536	321.295656351	1.0
1.5462	322.330603936	2.0
1.5565	323.370844076	0.0
1.5667	324.396200223	5.0
1.577	325.426799875	3.0
1.5872	326.442653473	0.0
1.5974	327.453811834	4.0
1.6077	328.470141095	3.0
1.6179	329.471928486	0.0
1.6282	330.478838855	2.0
1.6384	331.471342121	2.0
1.6486	332.459258075	3.0
1.6589	333.452226071	1.0
1.6691	334.430986455	3.0
1.6794	335.414752061	2.0
1.6896	336.384441724	5.0
1.6998	337.349649519	3.0
1.7101	338.31979323	3.0
1.7203	339.276055904	3.0
1.7306	340.237208751	4.0
1.7408	341.184609203	5.0
1.751	342.127630807	5.0
1.7613	343.07547487	4.0
1.7715	344.009756965	5.0
1.7818	344.948816827	0.0
1.792	345.874440407	1.0
1.8022	346.795785789	5.0
1.8125	347.721842783	5.0
1.8227	348.634649543	3.0
1.833	349.552124248	5.0
1.8432	350.456471516	5.0
1.8534	351.356638926	9.0
1.8637	352.261409646	7.0
1.8739	353.1532347	3.0
1.8842	354.049620404	6.0
1.8944	354.933180416	6.0
1.9046	355.812656648	5.0
1.9149	356.696630379	7.0
1.9251	357.567956012	5.0
1.9354	358.443737464	8.0
1.9456	359.306988035	10.0
1.9558	360.166248694	9.0
1.9661	361.029903474	5.0
1.9763	361.881200884	13.0
1.9866	362.736851692	6.0
1.9968	363.580259652	6.0
2.007	364.419769413	6.0
2.0173	365.263572292	7.0
2.0275	366.095301846	8.0
2.0378	366.931284731	15.0
2.048	367.755306182	9.0
2.0582	368.575519037	13.0
2.0685	369.399926328	13.0
2.0787	370.212537812	15.0
2.089	371.029304859	16.0
2.0992	371.834385418	21.0
2.1094	372.635744924	15.0
2.1197	373.441202454	20.0
2.1299	374.235135313	32.0
2.1402	375.033128217	20.0
2.1504	375.819703256	22.0
2.1606	376.602642776	36.0
2.1709	377.389586121	26.0
2.1811	378.165269702	22.0
2.1914	378.944920003	29.0
2.2016	379.71341489	24.0
2.2118	380.478357823	25.0
2.2221	381.24721255	23.0
2.2323	382.005066329	16.0
2.2426	382.766795649	38.0
2.2528	383.517625972	32.0
2.263	384.264985986	33.0
2.2733	385.016167879	27.0
2.2835	385.756601689	33.0
2.2938	386.500821959	31.0
2.304	387.234393755	38.0
2.3142	387.96457501	40.0
2.3245	388.698490294	34.0
2.3347	389.421904551	30.0
2.345	390.149018231	41.0
2.3552	390.865728203	29.0
2.3654	391.579125569	50.0
2.3757	392.296171134	43.0
2.3859	393.002957047	41.0
2.3962	393.713357349	39.0
2.4064	394.413593081	42.0
2.4166	395.110592351	50.0
2.4269	395.811155962	47.0
2.4371	396.501695749	44.0
2.4474	397.195766845	50.0
2.4576	397.879907014	50.0
2.4678	398.560885113	54.0
2.4781	399.245345623	55.0
2.4883	399.920012717	54.0
2.4986	400.598129949	40.0
2.5088	401.266544525	51.0
2.519	401.931869714	53.0
2.5293	402.600597269	49.0
2.5395	403.259756518	54.0
2.5498	403.9222866	39.0
2.56	404.575337051	36.0
2.5702	405.225369127	45.0
2.5805	405.878725362	45.0
2.5907	406.522733228	53.0
2.601	407.170034445	46.0
2.6112	407.808073929	50.0
2.6214	408.443164419	52.0
2.6317	409.081502659	52.0
2.6419	409.71070741	47.0
2.6522	410.343129812	53.0
2.6624	410.96650337	44.0
2.6726	411.586995719	40.0
2.6829	412.210661166	37.0
2.6931	412.825403066	39.0
2.7034	413.443288656	46.0
2.7136	414.052333398	41.0
2.7238	414.658563159	40.0
2.7341	415.267893081	36.0
2.7443	415.868504571	37.0
2.7546	416.472187491	29.0
2.7648	417.067232778	37.0
2.775	417.659527789	39.0
2.7853	418.2548517	28.0
2.7955	418.841657582	25.0
2.8058	419.431464293	31.0
2.816	420.012831916	28.0
2.8262	420.59151248	31.0
2.8365	421.173152323	27.0
2.8467	421.74646993	34.0
2.857	422.32271939	29.0
2.8672	422.890723742	32.0
2.8774	423.4561028	34.0
2.8877	424.024373114	25.0
2.8979	424.584512487	30.0
2.9082	425.147516323	30.0
2.9184	425.702464571	27.0
2.9286	426.25484787	35.0
2.9389	426.810055967	25.0
2.9491	427.35732002	35.0
2.9594	427.907382694	38.0
2.9696	428.449574945	34.0
2.9798	428.989261204	25.0
2.9901	429.531707331	33.0
3.0003	430.066392016	27.0
3.0106	430.603810991	29.0
3.0208	431.133540454	42.0
3.031	431.660821526	45.0
3.0413	432.190799029	37.0
3.0515	432.713193493	42.0
3.0618	433.238259398	44.0
3.072	433.755812541	38.0
3.0822	434.270973572	51.0
3.0925	434.788769053	34.0
3.1027	435.299155799	43.0
3.113	435.81215258	42.0
3.1232	436.317809286	40.0
3.1334	436.821128866	57.0
3.1437	437.327022341	39.0
3.1539	437.825677377	47.0
3.1642	438.326882454	43.0
3.1744	438.820916174	43.0
3.1846	439.312666489	53.0
3.1949	439.806931537	64.0
3.2051	440.294124526	56.0
3.2154	440.783808943	52.0
3.2256	441.266486843	45.0
3.2358	441.746933824	54.0
3.2461	442.229837733	44.0
3.2563	442.705832143	52.0
3.2666	443.184260711	61.0
3.2768	443.655843814	58.0
3.287	444.125247279	52.0
3.2973	444.597051196	47.0
3.3075	445.062104436	59.0
3.3178	445.529535882	68.0
3.328	445.990279213	50.0
3.3382	446.448893006	69.0
3.3485	446.909852076	60.0
3.3587	447.364215638	61.0
3.369	447.820902742	62.0
3.3792	448.271055462	51.0
3.3894	448.719127594	52.0
3.3997	449.169491094	54.0
3.4099	449.613410691	51.0
3.4202	450.059600421	56.0
3.4304	450.499405966	51.0
3.4406	450.937178747	61.0
3.4509	451.377190227	56.0
3.4611	451.810905923	52.0
3.4714	452.24683957	59.0
3.4816	452.676535779	49.0
3.4918	453.104245949	58.0
3.5021	453.53414336	55.0
3.5123	453.9578897	47.0
3.5226	454.383803011	54.0
3.5328	454.803622256	65.0
3.543	455.221501114	50.0
3.5533	455.641516936	46.0
3.5635	456.055523076	41.0
3.5738	456.471646376	56.0
3.584	456.88181569	54.0
3.5942	457.290089216	51.0
3.6045	457.700450587	62.0
3.6147	458.104940414	60.0
3.625	458.511498737	49.0
3.6352	458.912239931	54.0
3.6454	459.311128914	46.0
3.6557	459.712057751	62.0
3.6659	460.107250006	50.0
3.6762	460.504463211	52.0
3.6864	460.895992999	58.0
3.6966	461.285713151	34.0
3.7069	461.677426269	48.0
3.7171	462.063534666	44.0
3.7274	462.451617559	53.0
3.7376	462.834147673	38.0
3.7478	463.214909748	60.0
3.7581	463.597618979	42.0
3.7683	463.974852319	46.0
3.7786	464.354014769	52.0
3.7888	464.727752076	39.0
3.799	465.099761983	45.0
3.8093	465.47367429	34.0
3.8195	465.842236573	52.0
3.8298	466.212683625	44.0
3.84	466.577830235	50.0
3.8502	466.941289152	47.0
3.8605	467.306606739	32.0
3.8707	467.666697279	54.0
3.881	468.028629263	52.0
3.8912	468.385382643	61.0
3.9014	468.740487121	39.0
3.9117	469.097407547	45.0
3.9219	469.449221073	49.0
3.9322	469.802833717	50.0
3.9424	470.151386791	42.0
3.9526	470.498328866	50.0
3.9629	470.847045146	45.0
3.9731	471.190771915	44.0
3.9834	471.536256446	42.0
3.9936	471.876797706	43.0
4.0038	472.215764997	48.0
4.0141	472.556465713	50.0
4.0243	472.892291604	39.0
4.0346	473.229834855	49.0
4.0448	473.56254846	52.0
4.055	473.893724276	39.0
4.0653	474.226593671	33.0
4.0755	474.554700295	48.0
4.0858	474.884484803	47.0
4.096	475.209550679	39.0
4.1062	475.533114113	42.0
4.1165	475.858332199	48.0
4.1267	476.178896989	61.0
4.137	476.501101096	51.0
4.1472	476.818695034	42.0
4.1574	477.134821064	33.0
4.1677	477.452563712	32.0
4.1779	477.765760025	44.0
4.1882	478.080557974	40.0
4.1984	478.390851722	44.0
4.2086	478.699711304	35.0
4.2189	479.010150344	40.0
4.2291	479.316147551	42.0
4.2394	479.623709578	50.0
4.2496	479.926870938	42.0
4.2598	480.228631098	49.0
4.2701	480.531934411	41.0
4.2803	480.83089799	52.0
4.2906	481.131390421	41.0
4.3008	481.427583337	40.0
4.311	481.722407262	47.0
4.3213	482.018738868	43.0
4.3315	482.310830494	52.0
4.3418	482.604415829	51.0
4.352	482.893800478	49.0
4.3622	483.181847603	46.0
4.3725	483.471367754	47.0
4.3827	483.756745384	48.0
4.393	484.04358239	42.0
4.4032	484.326315266	34.0
4.4134	484.607741362	32.0
4.4237	484.890606625	41.0
4.4339	485.169424588	39.0
4.4442	485.449668381	40.0
4.4544	485.725902381	41.0
4.4646	486.000859639	42.0
4.4749	486.277222983	38.0
4.4851	486.549632058	32.0
4.4954	486.823434188	52.0
4.5056	487.093318696	43.0
4.5158	487.361955807	34.0
4.5261	487.631966685	38.0
4.5363	487.898114186	50.0
4.5466	488.165622723	36.0
4.5568	488.429303686	41.0
4.567	488.691765925	36.0
4.5773	488.955570355	34.0
4.5875	489.21560021	37.0
4.5978	489.476959816	44.0
4.608	489.734579829	41.0
4.6182	489.991009132	39.0
4.6285	490.248749773	54.0
4.6387	490.502802602	39.0
4.649	490.758154617	38.0
4.6592	491.009852996	38.0
4.6694	491.260388035	33.0
4.6797	491.51220427	39.0
4.6899	491.760417461	30.0
4.7002	492.009899974	25.0
4.7104	492.255812834	41.0
4.7206	492.500589095	34.0
4.7309	492.746617101	40.0
4.7411	492.989124883	28.0
4.7514	493.23287281	30.0
4.7616	493.473133137	31.0
4.7718	493.712282989	36.0
4.7821	493.952655815	37.0
4.7923	494.189589332	27.0
4.8026	494.427734488	23.0
4.8128	494.662472209	40.0
4.823	494.896124982	32.0
4.8333	495.130972617	31.0
4.8435	495.362459998	33.0
4.8538	495.595131169	34.0
4.864	495.824473227	40.0
4.8742	496.052755275	37.0
4.8845	496.282204721	35.0
4.8947	496.508371151	27.0
4.905	496.73569416	16.0
4.9152	496.95976458	27.0
4.9254	497.182799355	34.0
4.9357	497.406974693	36.0
4.9459	497.62794248	42.0
4.9562	497.85004026	32.0
4.9664	498.068960215	33.0
4.9766	498.286868329	29.0
4.9869	498.505890791	43.0
4.9971	498.721779429	47.0
5.0074	498.938772087	36.0
5.0176	499.152659965	38.0
5.0278	499.365559261	46.0
5.0381	499.579547289	31.0
5.0483	499.790473528	33.0
5.0586	500.00247841	28.0
5.0688	500.211449877	37.0
5.079	500.419455486	37.0
5.0893	500.628524803	30.0
5.0995	500.834602707	30.0
5.1098	501.041734461	33.0
5.12	501.245902527	30.0
5.1302	501.449126935	37.0
5.1405	501.653390601	42.0
5.1507	501.854731615	28.0
5.161	502.057102255	32.0
5.1712	502.256577329	43.0
5.1814	502.455130437	35.0
5.1917	502.654698914	32.0
5.2019	502.851411919	33.0
5.2122	503.049130883	34.0
5.2224	503.244020839	29.0
5.2326	503.438010021	33.0
5.2429	503.632991232	40.0
5.2531	503.825182607	29.0
5.2634	504.018356819	35.0
5.2736	504.208767049	37.0
5.2838	504.398297211	25.0
5.2941	504.588796599	27.0
5.3043	504.776570279	32.0
5.3146	504.965304203	29.0
5.3248	505.151337678	31.0
5.335	505.336511315	31.0
5.3453	505.522631899	31.0
5.3555	505.706089427	38.0
5.3658	505.890485128	24.0
5.376	506.072242453	26.0
5.3862	506.253159702	31.0
5.3965	506.435002133	23.0
5.4067	506.614242721	31.0
5.417	506.794399916	26.0
5.4272	506.971979382	30.0
5.4374	507.148738081	26.0
5.4477	507.326400696	32.0
5.4579	507.501521274	17.0
5.4682	507.67753739	22.0
5.4784	507.851035028	24.0
5.4886	508.023730766	27.0
5.4989	508.197309642	31.0
5.5091	508.368404912	27.0
5.5194	508.540375135	32.0
5.5296	508.709884769	27.0
5.5398	508.878610937	28.0
5.5501	509.048199942	20.0
5.5603	509.215362429	30.0
5.5706	509.383379759	23.0
5.5808	509.548993058	20.0
5.591	509.713840899	21.0
5.6013	509.879531744	20.0
5.6115	510.042851848	18.0
5.6218	510.207007144	18.0
5.632	510.368813669	19.0
5.6422	510.52987233	21.0
5.6525	510.691754619	13.0
5.6627	510.851320659	26.0
5.673	511.011702694	14.0
5.6832	511.169789947	15.0
5.6934	511.327146526	21.0
5.7037	511.485307801	9.0
5.7139	511.641206069	12.0
5.7242	511.797901576	18.0
5.7344	511.952355047	15.0
5.7446	512.10609464	16.0
5.7549	512.260620433	14.0
5.7651	512.412935235	13.0
5.7754	512.566028951	13.0
5.7856	512.716932166	23.0
5.7958	512.867137913	5.0
5.8061	513.018111788	13.0
5.8163	513.166925494	9.0
5.8266	513.31650021	10.0
5.8368	513.463934776	10.0
5.847	513.610687905	18.0
5.8573	513.758191506	7.0
5.8675	513.903584592	12.0
5.8778	514.049721195	6.0
5.888	514.193766842	7.0
5.8982	514.337146715	7.0
5.9085	514.48125981	14.0
5.9187	514.623310902	7.0
5.929	514.76608842	9.0
5.9392	514.906823045	13.0
5.9494	515.0469072	10.0
5.9597	515.187707722	11.0
5.9699	515.326493639	3.0
5.9802	515.465989284	6.0
5.9904	515.603488993	5.0
6.0006	515.740353185	9.0
6.0109	515.877917277	12.0
6.0211	516.013513072	11.0
6.0314	516.149802281	6.0
6.0416	516.284141433	9.0
6.0518	516.417859675	6.0
6.0621	516.55226173	8.0
6.0723	516.68474073	3.0
6.0826	516.817897206	4.0
6.0928	516.949148449	8.0
6.103	517.079793053	3.0
6.1133	517.211105753	4.0
6.1235	517.340539601	3.0
6.1338	517.470635353	6.0
6.144	517.598869665	2.0
6.1542	517.726511283	3.0
6.1645	517.854805639	5.0
6.1747	517.981264331	2.0
6.185	518.108369712	4.0
6.1952	518.23365644	9.0
6.2054	518.358364098	1.0
6.2157	518.48370949	6.0
6.2259	518.607261412	3.0
6.2362	518.731445159	2.0
6.2464	518.853852056	3.0
6.2566	518.975693193	0.0
6.2669	519.098157406	5.0
6.2771	519.218869373	4.0
6.2874	519.340198642	2.0
6.2976	519.459791904	0.0
6.3078	519.57883241	1.0
6.3181	519.69848167	4.0
6.3283	519.816418961	7.0
6.3386	519.934959365	3.0
6.3488	520.051803665	3.0
6.359	520.168107916	4.0
6.3693	520.285006927	3.0
6.3795	520.400233321	4.0
6.3898	520.516048964	1.0
6.4	520.630207491	2.0
6.4102	520.743838381	1.0
6.4205	520.858050361	3.0
6.4307	520.97062817	1.0
6.441	521.083781684	0.0
6.4512	521.195316171	2.0
6.4614	521.30633515	2.0
6.4717	521.417921863	4.0
6.4819	521.527911967	4.0
6.4922	521.638464543	1.0
6.5024	521.747435307	1.0
6.5126	521.855902413	3.0
6.5229	521.964924202	0.0
6.5331	522.072386082	3.0
6.5434	522.180397505	0.0
6.5536	522.286863476	3.0
6.5638	522.392837366	1.0
6.5741	522.499353188	2.0
6.5843	522.604344958	0.0
6.5946	522.709873639	0.0
6.6048	522.813892391	0.0
6.615	522.917430373	1.0
6.6253	523.021497831	0.0
6.6355	523.124076269	1.0
6.6458	523.227179275	1.0
6.656	523.328807061	1.0
6.6662	523.429965127	2.0
6.6765	523.531640498	2.0
6.6867	523.631861076	6.0
6.697	523.732594165	1.0
6.7072	523.831885942	2.0
6.7174	523.930718796	2.0
6.7277	524.030057066	0.0
6.7379	524.127973981	1.0
6.7482	524.226391627	2.0
6.7584	524.323401091	2.0
6.7686	524.419962181	1.0
6.7789	524.517017069	2.0
6.7891	524.612683273	1.0
6.7994	524.708838699	1.0
6.8096	524.803618311	2.0
6.8198	524.897959856	1.0
6.8301	524.992783848	2.0
6.8403	525.086251076	2.0
6.8506	525.180196281	0.0
6.8608	525.272797296	2.0
6.871	525.364970313	0.0
6.8813	525.457614688	0.0
6.8915	525.548933486	0.0
6.9018	525.640719274	2.0
6.912	525.731191769	0.0
6.9222	525.821246105	0.0
6.9325	525.911760963	1.0
6.9427	526.000980714	2.0
6.953	526.090656721	2.0
6.9632	526.179049623	0.0
6.9734	526.267033976	0.0
6.9837	526.355468267	1.0
6.9939	526.44263722	0.0
7.0042	526.530251941	1.0
7.0144	526.616613051	0.0
7.0246	526.702575003	0.0
7.0349	526.78897655	0.0
7.0451	526.874141844	0.0
7.0554	526.95974266	0.0
7.0656	527.04411868	1.0
7.0758	527.128104717	3.0
7.0861	527.212520245	1.0
7.0963	527.295727937	1.0
7.1066	527.379361139	0.0
7.1168	527.461797698	0.0
7.127	527.543853239	3.0
7.1373	527.626328398	1.0
7.1475	527.707623484	1.0
7.1578	527.7893343	1.0
7.168	527.869875979	0.0
7.1782	527.950045397	4.0
7.1885	528.030624789	1.0
7.1987	528.110051233	2.0
7.209	528.18988385	2.0
7.2192	528.268574204	1.0
7.2294	528.346900854	1.0
7.2397	528.425628055	1.0
7.2499	528.503228808	0.0
7.2602	528.581226399	3.0
7.2704	528.658107983	0.0
7.2806	528.734634223	1.0
7.2909	528.811551806	1.0
7.3011	528.887368835	1.0
7.3114	528.963573579	0.0
7.3216	529.038687969	0.0
7.3318	529.113455183	1.0
7.3421	529.188604744	2.0
7.3523	529.262679048	1.0
7.3626	529.337132157	3.0
7.3728	529.410519973	2.0
7.383	529.483568593	0.0
7.3933	529.556990773	1.0
7.4035	529.629362411	3.0
7.4138	529.702104146	1.0
7.424	529.773805075	1.0
7.4342	529.845174606	0.0
7.4445	529.916909109	2.0
7.4547	529.987617218	1.0
7.465	530.058686917	3.0
7.4752	530.128739735	1.0
7.4854	530.198468771	0.0
7.4957	530.26855439	0.0
7.5059	530.337637209	0.0
7.5162	530.407073305	0.0
7.5264	530.475515894	0.0
7.5366	530.543642144	1.0
7.5469	530.612116781	0.0
7.5571	530.679611667	1.0
7.5674	530.747451711	1.0
7.5776	530.814321084	1.0
7.5878	530.880881389	0.0
7.5981	530.947782073	0.0
7.6083	531.013725527	1.0
7.6186	531.080006204	2.0
7.6288	531.145338523	1.0
7.639	531.210368879	1.0
7.6493	531.275731789	3.0
7.6595	531.340159471	0.0
7.6698	531.404916627	0.0
7.68	531.468747222	1.0
7.6902	531.532282795	0.0
7.7005	531.596143278	0.0
7.7107	531.659090031	1.0
7.721	531.722358683	2.0
7.7312	531.784722074	2.0
7.7414	531.846797222	0.0
7.7517	531.909189814	1.0
7.7619	531.970689678	1.0
7.7722	532.032504042	0.0
7.7824	532.093433952	0.0
7.7926	532.154082246	0.0
7.8029	532.215040686	0.0
7.8131	532.275126919	1.0
7.8234	532.335520423	1.0
7.8336	532.395049803	1.0
7.8438	532.45430404	0.0
7.8541	532.513861294	4.0
7.8643	532.57256639	1.0
7.8746	532.631571693	1.0
7.8848	532.689732736	0.0
7.895	532.74762496	0.0
7.9053	532.805813236	0.0
7.9155	532.86316894	0.0
7.9258	532.920817952	3.0
7.936	532.977642109	0.0
7.9462	533.034203628	0.0
7.9565	533.091054392	1.0
7.9667	533.147091723	0.0
7.977	533.203415619	0.0
7.9872	533.258933621	1.0
7.9974	533.31419502	2.0
8.0077	533.369739018	0.0
8.0179	533.424488279	0.0
8.0282	533.479517519	2.0
8.0384	533.533759388	1.0
