TL-DOS Lehrstuhlversuch
detector=R1407604
job_number=2015-10-21-012
irradiation_dose [mSv]=5.0

[BEGIN DATA]
time [sec] 	 temperature [K] 	 photoncount 
0.0	110.922559539	0.0
0.0102	112.91832247	0.0
0.0205	114.924350142	0.0
0.0307	116.901733006	5.0
0.041	118.889286079	3.0
0.0512	120.848458149	2.0
0.0614	122.798631819	4.0
0.0717	124.758835753	3.0
0.0819	126.691049213	3.0
0.0922	128.633200562	3.0
0.1024	130.547619218	2.0
0.1126	132.453245024	4.0
0.1229	134.368671971	1.0
0.1331	136.256747833	1.0
0.1434	138.154534572	2.0
0.1536	140.025222116	5.0
0.1638	141.887317666	0.0
0.1741	143.758990469	2.0
0.1843	145.603936968	0.0
0.1946	147.458372519	0.0
0.2048	149.286327902	0.0
0.215	151.105887558	2.0
0.2253	152.934805695	1.0
0.2355	154.737608037	2.0
0.2458	156.549682672	0.0
0.256	158.335882026	0.0
0.2662	160.113877437	2.0
0.2765	161.901017552	0.0
0.2867	163.662638437	0.0
0.297	165.433319807	0.0
0.3072	167.178716966	0.0
0.3174	168.916097585	2.0
0.3277	170.662414016	0.0
0.3379	172.383794151	0.0
0.3482	174.114027804	0.0
0.3584	175.819554814	0.0
0.3686	177.517248406	0.0
0.3789	179.223673688	0.0
0.3891	180.905732296	1.0
0.3994	182.59644218	0.0
0.4096	184.263009795	0.0
0.4198	185.921922931	0.0
0.4301	187.589368299	0.0
0.4403	189.233003601	0.0
0.4506	190.885092559	0.0
0.4608	192.513590729	0.0
0.471	194.134609272	0.0
0.4813	195.763965146	0.0
0.4915	197.370054848	0.0
0.5018	198.984405097	0.0
0.512	200.575703445	0.0
0.5222	202.159693022	0.0
0.5325	203.75182948	0.0
0.5427	205.321231236	0.0
0.553	206.898704843	0.0
0.5632	208.453653125	0.0
0.5734	210.00145959	0.0
0.5837	211.557226836	0.0
0.5939	213.09077871	0.0
0.6042	214.63221805	0.0
0.6144	216.15164661	0.0
0.6246	217.664096494	0.0
0.6349	219.184325312	1.0
0.6451	220.682846223	2.0
0.6554	222.189074427	0.0
0.6656	223.673794644	0.0
0.6758	225.151695599	2.0
0.6861	226.637197794	0.0
0.6963	228.101487955	0.0
0.7066	229.573309352	0.0
0.7168	231.024114069	2.0
0.727	232.468255297	0.0
0.7373	233.919824129	1.0
0.7475	235.350665475	0.0
0.7578	236.78886602	0.0
0.768	238.20652997	0.0
0.7782	239.617682645	0.0
0.7885	241.036093255	0.0
0.7987	242.434249858	1.0
0.809	243.839597553	1.0
0.8192	245.224877771	0.0
0.8294	246.603795452	0.0
0.8397	247.989805274	1.0
0.8499	249.356023751	0.0
0.8602	250.729269055	0.0
0.8704	252.082905284	1.0
0.8806	253.430324315	0.0
0.8909	254.784673481	0.0
0.9011	256.119683397	0.0
0.9114	257.461559625	1.0
0.9216	258.784274709	0.0
0.9318	260.100914614	1.0
0.9421	261.42432635	0.0
0.9523	262.728840602	1.0
0.9626	264.040064319	1.0
0.9728	265.33256459	1.0
0.983	266.619128458	0.0
0.9933	267.912309468	3.0
1.0035	269.187024669	1.0
1.0138	270.468296071	0.0
1.024	271.731271727	3.0
1.0342	272.988446586	0.0
1.0445	274.25208743	0.0
1.0547	275.497684282	2.0
1.065	276.749687571	1.0
1.0752	277.983813043	1.0
1.0854	279.212270226	1.0
1.0957	280.447045692	0.0
1.1059	281.664189345	3.0
1.1162	282.887593092	0.0
1.1264	284.093527407	2.0
1.1366	285.293922913	3.0
1.1469	286.500492373	1.0
1.1571	287.689832784	3.0
1.1674	288.88529029	5.0
1.1776	290.063677418	2.0
1.1878	291.23665226	3.0
1.1981	292.415660025	1.0
1.2083	293.577832304	0.0
1.2186	294.745981946	2.0
1.2288	295.897451148	3.0
1.239	297.043631698	4.0
1.2493	298.19570736	3.0
1.2595	299.33133211	5.0
1.2698	300.47279768	1.0
1.28	301.597963844	3.0
1.2902	302.717962164	6.0
1.3005	303.843720934	0.0
1.3107	304.95340458	2.0
1.321	306.068795625	3.0
1.3312	307.168259591	6.0
1.3414	308.262673762	3.0
1.3517	309.362716797	6.0
1.3619	310.447051913	2.0
1.3722	311.536964054	4.0
1.3824	312.611312938	8.0
1.3926	313.680727379	9.0
1.4029	314.755642105	6.0
1.4131	315.815207728	8.0
1.4234	316.880222979	5.0
1.4336	317.930030485	7.0
1.4438	318.975016267	9.0
1.4541	320.02537669	6.0
1.4643	321.060738629	4.0
1.4746	322.101425711	6.0
1.4848	323.12725244	10.0
1.495	324.148367586	9.0
1.5053	325.1747346	8.0
1.5155	326.186445742	13.0
1.5258	327.203360384	17.0
1.536	328.205754127	21.0
1.5462	329.203543916	15.0
1.5565	330.206465604	8.0
1.5667	331.195066203	15.0
1.577	332.188751439	12.0
1.5872	333.168247478	15.0
1.5974	334.143244731	14.0
1.6077	335.123256654	22.0
1.6179	336.089274626	26.0
1.6282	337.060261087	22.0
1.6384	338.017382474	27.0
1.6486	338.970107841	24.0
1.6589	339.927733328	24.0
1.6691	340.871684528	29.0
1.6794	341.820490722	30.0
1.6896	342.755748562	30.0
1.6998	343.6867108	35.0
1.7101	344.622461225	40.0
1.7203	345.544849726	34.0
1.7306	346.471982316	60.0
1.7408	347.385876039	33.0
1.751	348.295572284	51.0
1.7613	349.20994734	61.0
1.7715	350.111265698	74.0
1.7818	351.017219776	50.0
1.792	351.910237402	62.0
1.8022	352.799153434	64.0
1.8125	353.692641398	75.0
1.8227	354.573370919	74.0
1.833	355.458630267	96.0
1.8432	356.33124867	88.0
1.8534	357.199859171	67.0
1.8637	358.072937168	114.0
1.8739	358.933548163	94.0
1.8842	359.79858551	101.0
1.8944	360.65127067	129.0
1.9046	361.500039481	103.0
1.9149	362.353173736	121.0
1.9251	363.194125773	141.0
1.9354	364.039403051	152.0
1.9456	364.872610304	144.0
1.9558	365.701990668	142.0
1.9661	366.535636757	172.0
1.9763	367.357378906	174.0
1.9866	368.183347495	188.0
1.9968	368.997521774	190.0
2.007	369.807956583	196.0
2.0173	370.622559674	190.0
2.0275	371.425530748	237.0
2.0378	372.232631716	242.0
2.048	373.028207792	247.0
2.0582	373.820129819	267.0
2.0685	374.616124912	265.0
2.0787	375.400753698	286.0
2.089	376.189418039	313.0
2.0992	376.966820752	335.0
2.1094	377.740652885	351.0
2.1197	378.518465043	323.0
2.1299	379.285170535	366.0
2.1402	380.055819397	419.0
2.1504	380.815463881	366.0
2.1606	381.571619348	421.0
2.1709	382.331663924	434.0
2.1811	383.080855544	459.0
2.1914	383.833900456	494.0
2.2016	384.576192363	488.0
2.2118	385.315074952	522.0
2.2221	386.057757811	557.0
2.2323	386.789835629	578.0
2.2426	387.525678718	601.0
2.2528	388.251014432	611.0
2.263	388.973018709	602.0
2.2733	389.698736446	680.0
2.2835	390.414091392	747.0
2.2938	391.133125599	709.0
2.304	391.841892453	714.0
2.3142	392.547403968	719.0
2.3245	393.256544117	740.0
2.3347	393.955558193	778.0
2.345	394.658167485	827.0
2.3552	395.35074396	840.0
2.3654	396.040139459	884.0
2.3757	396.733080702	825.0
2.3859	397.416127183	821.0
2.3962	398.102686754	873.0
2.4064	398.779442688	899.0
2.4166	399.453090308	854.0
2.4269	400.130202678	914.0
2.4371	400.797646312	919.0
2.4474	401.468522785	977.0
2.4576	402.129819567	988.0
2.4678	402.788079039	959.0
2.4781	403.449724115	953.0
2.4883	404.101921317	940.0
2.4986	404.757472944	922.0
2.5088	405.403663707	934.0
2.519	406.046886542	933.0
2.5293	406.693417643	921.0
2.5395	407.330716689	872.0
2.5498	407.971293534	900.0
2.56	408.602723346	853.0
2.5702	409.231253026	881.0
2.5805	409.863015402	869.0
2.5907	410.48575661	798.0
2.601	411.111700743	872.0
2.6112	411.728706789	817.0
2.6214	412.34287895	739.0
2.6317	412.960209963	692.0
2.6419	413.568725878	720.0
2.6522	414.180371554	741.0
2.6624	414.783283316	684.0
2.6726	415.383425928	642.0
2.6829	415.986655233	629.0
2.6931	416.581270805	623.0
2.7034	417.178944644	540.0
2.7136	417.768084078	593.0
2.7238	418.354517617	562.0
2.7341	418.943967341	514.0
2.7443	419.525000096	514.0
2.7546	420.109021256	534.0
2.7648	420.684702964	521.0
2.775	421.257740588	508.0
2.7853	421.833725498	531.0
2.7955	422.401485707	521.0
2.8058	422.972166058	518.0
2.816	423.534697454	518.0
2.8262	424.094645166	513.0
2.8365	424.657472838	498.0
2.8467	425.212263687	523.0
2.857	425.769907974	556.0
2.8672	426.319589452	562.0
2.8774	426.866746265	526.0
2.8877	427.416717251	565.0
2.8979	427.958834999	513.0
2.9082	428.503741003	563.0
2.9184	429.040866094	558.0
2.9286	429.575524191	602.0
2.9389	430.112932176	602.0
2.9491	430.642666316	591.0
2.9594	431.175125019	663.0
2.9696	431.699980548	710.0
2.9798	432.222425437	634.0
2.9901	432.747557399	706.0
3.0003	433.265190809	681.0
3.0106	433.785486545	761.0
3.0208	434.298352787	686.0
3.031	434.808863455	714.0
3.0413	435.321999815	750.0
3.0515	435.827808912	743.0
3.0618	436.33621952	753.0
3.072	436.837370346	801.0
3.0822	437.336219406	760.0
3.0925	437.83763418	831.0
3.1027	438.331889067	861.0
3.113	438.82868604	821.0
3.1232	439.318389065	902.0
3.1334	439.805842904	931.0
3.1437	440.295803848	900.0
3.1539	440.77876846	852.0
3.1642	441.264217087	916.0
3.1744	441.742733814	856.0
3.1846	442.219052733	944.0
3.1949	442.697821488	855.0
3.2051	443.169753727	933.0
3.2154	443.644113239	991.0
3.2256	444.111699198	943.0
3.2358	444.577137552	994.0
3.2461	445.04496978	1004.0
3.2563	445.50612166	1010.0
3.2666	445.969645367	984.0
3.2768	446.426550248	1020.0
3.287	446.881356583	958.0
3.2973	447.338502108	1017.0
3.3075	447.789119884	925.0
3.3178	448.242055307	970.0
3.328	448.688523099	962.0
3.3382	449.132940282	1048.0
3.3485	449.579643221	941.0
3.3587	450.019967524	911.0
3.369	450.462556533	940.0
3.3792	450.89882565	959.0
3.3894	451.333091001	974.0
3.3997	451.769589894	994.0
3.4099	452.199855858	929.0
3.4202	452.632334796	904.0
3.4304	453.058638207	984.0
3.4406	453.482983623	926.0
3.4509	453.909511562	885.0
3.4611	454.32994895	882.0
3.4714	454.752548761	917.0
3.4816	455.169114113	886.0
3.4918	455.583766197	861.0
3.5021	456.000550947	883.0
3.5123	456.411384275	861.0
3.5226	456.824330627	866.0
3.5328	457.231380367	912.0
3.543	457.636560543	851.0
3.5533	458.04382467	840.0
3.5635	458.445273321	830.0
3.5738	458.848786731	832.0
3.584	459.246538223	836.0
3.5942	459.642462859	822.0
3.6045	460.040423841	823.0
3.6147	460.432702192	770.0
3.625	460.826998134	802.0
3.6352	461.21566378	722.0
3.6454	461.6025443	846.0
3.6557	461.991414649	818.0
3.6659	462.374732176	797.0
3.6762	462.760021207	787.0
3.6864	463.139808554	726.0
3.6966	463.517851553	750.0
3.7069	463.897838928	775.0
3.7171	464.272400323	762.0
3.7274	464.648888187	713.0
3.7376	465.020000043	812.0
3.7478	465.389407396	763.0
3.7581	465.76071471	788.0
3.7683	466.12671999	773.0
3.7786	466.494607733	765.0
3.7888	466.857242272	783.0
3.799	467.218211244	765.0
3.8093	467.581036776	822.0
3.8195	467.938681389	787.0
3.8298	468.298165463	787.0
3.84	468.652516332	776.0
3.8502	469.005239682	788.0
3.8605	469.359777181	754.0
3.8707	469.709252109	751.0
3.881	470.06052448	810.0
3.8912	470.406780904	813.0
3.9014	470.751446985	801.0
3.9117	471.097885776	786.0
3.9219	471.43937764	826.0
3.9322	471.782625888	832.0
3.9424	472.120972768	788.0
3.9526	472.457765633	804.0
3.9629	472.796290715	785.0
3.9731	473.129981872	747.0
3.9834	473.465389292	855.0
3.9936	473.796007305	765.0
4.0038	474.125106804	788.0
4.0141	474.455898948	792.0
4.0243	474.78196759	765.0
4.0346	475.10971329	774.0
4.0448	475.432778989	808.0
4.055	475.754360859	813.0
4.0653	476.077596711	790.0
4.0755	476.396216959	748.0
4.0858	476.716475956	809.0
4.096	477.032161857	818.0
4.1062	477.346397825	674.0
4.1165	477.662249992	742.0
4.1267	477.97359199	759.0
4.137	478.286535303	716.0
4.1472	478.595009983	733.0
4.1574	478.902067852	729.0
4.1677	479.210705	704.0
4.1779	479.514935006	761.0
4.1882	479.820729747	741.0
4.1984	480.122157933	727.0
4.2086	480.422201671	753.0
4.2189	480.723788613	752.0
4.2291	481.021069085	767.0
4.2394	481.31987855	741.0
4.2496	481.614421204	749.0
4.2598	481.907611036	685.0
4.2701	482.202308821	699.0
4.2803	482.492798508	670.0
4.2906	482.784782261	715.0
4.3008	483.07259667	680.0
4.311	483.359089159	716.0
4.3213	483.647055156	715.0
4.3315	483.93090918	704.0
4.3418	484.216223141	721.0
4.352	484.497462999	640.0
4.3622	484.777411133	703.0
4.3725	485.058799115	728.0
4.3827	485.336169055	710.0
4.393	485.614965582	675.0
4.4032	485.889781071	642.0
4.4134	486.163334344	655.0
4.4237	486.438294573	666.0
4.4339	486.709328545	643.0
4.4442	486.981756516	690.0
4.4544	487.250294388	653.0
4.4646	487.517598877	652.0
4.4749	487.786278183	657.0
4.4851	488.051120919	683.0
4.4954	488.317325812	643.0
4.5056	488.579729467	700.0
4.5158	488.840927912	655.0
4.5261	489.103469771	619.0
4.5363	489.362262698	653.0
4.5466	489.622386666	669.0
4.5568	489.878796228	642.0
4.567	490.134028111	670.0
4.5773	490.39057272	663.0
4.5875	490.643454034	626.0
4.5978	490.897635984	642.0
4.608	491.148188376	707.0
4.6182	491.397589991	634.0
4.6285	491.648274345	650.0
4.6387	491.895379085	654.0
4.649	492.14375475	627.0
4.6592	492.388583768	612.0
4.6694	492.632288296	659.0
4.6797	492.877246261	633.0
4.6899	493.118706381	615.0
4.7002	493.361408396	684.0
4.7104	493.600644778	670.0
4.7206	493.838782358	643.0
4.7309	494.078144742	640.0
4.7411	494.314089183	655.0
4.7514	494.551247149	638.0
4.7616	494.78501865	671.0
4.7718	495.017716447	665.0
4.7821	495.25161107	641.0
4.7923	495.482165827	654.0
4.8026	495.713906388	666.0
4.8128	495.94233784	675.0
4.823	496.169720116	706.0
4.8333	496.398271879	641.0
4.8435	496.623560067	626.0
4.8538	496.850006973	631.0
4.864	497.07322036	649.0
4.8742	497.295408537	653.0
4.8845	497.518739487	666.0
4.8947	497.738881412	679.0
4.905	497.960155586	609.0
4.9152	498.178270104	662.0
4.9254	498.395382831	683.0
4.9357	498.613612226	633.0
4.9459	498.828725444	632.0
4.9562	499.044945046	597.0
4.9664	499.258077169	658.0
4.9766	499.470230385	636.0
4.9869	499.683474761	632.0
4.9971	499.893674143	653.0
5.0074	500.104954635	651.0
5.0176	500.313218176	616.0
5.0278	500.520525171	650.0
5.0381	500.7288984	632.0
5.0483	500.934296192	603.0
5.0586	501.1407504	611.0
5.0688	501.344256571	602.0
5.079	501.546828047	606.0
5.0893	501.750441402	623.0
5.0995	501.951147287	580.0
5.1098	502.152885456	629.0
5.12	502.351742932	564.0
5.1302	502.549687062	588.0
5.1405	502.748649273	580.0
5.1507	502.944770428	545.0
5.161	503.141900287	572.0
5.1712	503.336215257	559.0
5.1814	503.529637745	584.0
5.1917	503.724055057	565.0
5.2019	503.915696212	549.0
5.2122	504.108323029	533.0
5.2224	504.298199257	530.0
5.2326	504.48720339	498.0
5.2429	504.677179623	544.0
5.2531	504.864443114	483.0
5.2634	505.052669752	515.0
5.2736	505.238208633	500.0
5.2838	505.42289534	483.0
5.2941	505.608531941	461.0
5.3043	505.791517768	482.0
5.3146	505.975444741	492.0
5.3248	506.156745352	461.0
5.335	506.337213257	432.0
5.3453	506.518609356	427.0
5.3555	506.697415234	450.0
5.3658	506.877140758	416.0
5.376	507.054299915	390.0
5.3862	507.230645387	413.0
5.3965	507.407897851	377.0
5.4067	507.582619262	397.0
5.417	507.758239311	406.0
5.4272	507.931351617	362.0
5.4374	508.103668825	360.0
5.4477	508.276872307	361.0
5.4579	508.447602552	315.0
5.4682	508.619210909	333.0
5.4784	508.788368806	308.0
5.4886	508.956749768	330.0
5.4989	509.125996759	319.0
5.5091	509.292827009	294.0
5.5194	509.460515311	279.0
5.5296	509.625809131	316.0
5.5398	509.790343763	265.0
5.5501	509.95572464	288.0
5.5603	510.118743983	261.0
5.5706	510.282601777	225.0
5.5808	510.444119786	253.0
5.591	510.604895949	233.0
5.6013	510.766499027	240.0
5.6115	510.925794515	217.0
5.6218	511.085909302	234.0
5.632	511.243737752	196.0
5.6422	511.400841301	220.0
5.6525	511.558752876	186.0
5.6627	511.714409573	196.0
5.673	511.870866854	194.0
5.6832	512.025090024	195.0
5.6934	512.178604853	174.0
5.7037	512.33290925	165.0
5.7139	512.485010278	175.0
5.7242	512.637893602	136.0
5.7344	512.788593848	138.0
5.7446	512.938601934	115.0
5.7549	513.089381552	139.0
5.7651	513.238008132	147.0
5.7754	513.387399139	140.0
5.7856	513.534656936	143.0
5.7958	513.681238384	113.0
5.8061	513.828573739	114.0
5.8163	513.973805238	116.0
5.8266	514.119783702	99.0
5.8368	514.263677686	84.0
5.847	514.40691077	88.0
5.8573	514.550880541	99.0
5.8675	514.692794514	97.0
5.8778	514.835438388	76.0
5.888	514.976045398	91.0
5.8982	515.116006606	78.0
5.9085	515.256687671	75.0
5.9187	515.395359899	59.0
5.929	515.534745356	70.0
5.9392	515.672140477	73.0
5.9494	515.808904547	55.0
5.9597	515.946372032	69.0
5.9699	516.081876567	49.0
5.9802	516.218078039	50.0
5.9904	516.352334639	42.0
6.0006	516.485974605	66.0
6.0109	516.620301916	53.0
6.0211	516.752711118	48.0
6.0314	516.885801336	41.0
6.0416	517.01699111	39.0
6.0518	517.147578334	46.0
6.0621	517.278837204	42.0
6.0723	517.408221779	43.0
6.0826	517.538271814	41.0
6.0928	517.666464817	47.0
6.103	517.794069034	41.0
6.1133	517.922329554	31.0
6.1235	518.048758594	37.0
6.1338	518.175837893	27.0
6.144	518.30110258	28.0
6.1542	518.425791931	31.0
6.1645	518.551122593	20.0
6.1747	518.674663612	28.0
6.185	518.798840035	34.0
6.1952	518.921243298	20.0
6.2054	519.043084367	22.0
6.2157	519.165552097	23.0
6.2259	519.286271066	28.0
6.2362	519.407610924	18.0
6.2464	519.527218126	16.0
6.2566	519.646275977	21.0
6.2669	519.765946174	12.0
6.2771	519.883907556	16.0
6.2874	520.002475645	12.0
6.2976	520.119350656	18.0
6.3078	520.235688866	13.0
6.3181	520.352625434	14.0
6.3283	520.467892221	17.0
6.3386	520.583751856	23.0
6.3488	520.697957089	11.0
6.359	520.811637782	19.0
6.3693	520.925903165	14.0
6.3795	521.03853691	13.0
6.3898	521.151749961	15.0
6.4	521.263346401	8.0
6.4102	521.374430283	11.0
6.4205	521.486085499	10.0
6.4307	521.59614635	14.0
6.441	521.706773272	6.0
6.4512	521.815820512	11.0
6.4614	521.924366902	6.0
6.4717	522.033471575	11.0
6.4819	522.141018303	14.0
6.4922	522.249118172	16.0
6.5024	522.355674443	9.0
6.5126	522.461741305	7.0
6.5229	522.568353698	10.0
6.5331	522.673443733	13.0
6.5434	522.779074274	4.0
6.5536	522.883196477	6.0
6.5638	522.986840452	5.0
6.5741	523.091017495	8.0
6.5843	523.193706956	5.0
6.5946	523.296924576	10.0
6.6048	523.398668313	6.0
6.615	523.499944746	9.0
6.6253	523.601742071	7.0
6.6355	523.702085793	8.0
6.6458	523.802945611	3.0
6.656	523.902365214	10.0
6.6662	524.001328187	9.0
6.6765	524.100800152	7.0
6.6867	524.198851721	7.0
6.697	524.297407595	9.0
6.7072	524.394556154	6.0
6.7174	524.491258513	10.0
6.7277	524.588458238	5.0
6.7379	524.684270013	1.0
6.7482	524.780574573	8.0
6.7584	524.875503964	5.0
6.7686	524.969997349	8.0
6.7789	525.064976739	4.0
6.7891	525.158599882	5.0
6.7994	525.252704555	2.0
6.8096	525.345465472	5.0
6.8198	525.437800343	8.0
6.8301	525.530610115	9.0
6.8403	525.622094624	7.0
6.8506	525.714049661	11.0
6.8608	525.804691638	5.0
6.871	525.894917301	5.0
6.8813	525.985607018	2.0
6.8915	526.075001743	8.0
6.9018	526.164856249	5.0
6.912	526.25342769	7.0
6.9222	526.341592325	5.0
6.9325	526.430210415	5.0
6.9427	526.517563094	5.0
6.953	526.605365052	4.0
6.9632	526.691913253	5.0
6.9734	526.778063942	5.0
6.9837	526.864657726	3.0
6.9939	526.950015006	8.0
7.0042	527.035811301	9.0
7.0144	527.12038248	9.0
7.0246	527.204565226	2.0
7.0349	527.289180947	7.0
7.0451	527.372588408	3.0
7.0554	527.456424857	4.0
7.0656	527.539064174	1.0
7.0758	527.621323932	7.0
7.0861	527.704006773	10.0
7.0963	527.785508956	8.0
7.1066	527.867430327	12.0
7.1168	527.948181912	3.0
7.127	528.028562608	3.0
7.1373	528.109356723	7.0
7.1475	528.18899715	4.0
7.1578	528.269047188	5.0
7.168	528.347954163	0.0
7.1782	528.426498721	7.0
7.1885	528.505447255	3.0
7.1987	528.583268453	2.0
7.209	528.661489907	2.0
7.2192	528.738594407	5.0
7.2294	528.81534477	4.0
7.2397	528.89248988	8.0
7.2499	528.968533407	7.0
7.2602	529.044968046	7.0
7.2704	529.120311247	5.0
7.2806	529.1953084	6.0
7.2909	529.270691282	3.0
7.3011	529.344997745	5.0
7.3114	529.419686386	6.0
7.3216	529.49330852	5.0
7.3318	529.566592511	7.0
7.3421	529.64025342	4.0
7.3523	529.712862499	6.0
7.3626	529.785845025	3.0
7.3728	529.857785407	3.0
7.383	529.92939537	9.0
7.3933	530.001373641	6.0
7.4035	530.072324109	3.0
7.4138	530.143639494	3.0
7.424	530.21393654	5.0
7.4342	530.283910714	5.0
7.4445	530.354244785	2.0
7.4547	530.423574529	6.0
7.465	530.493260855	3.0
7.4752	530.561952104	5.0
7.4854	530.630327856	6.0
7.4957	530.699055284	2.0
7.5059	530.766801327	6.0
7.5162	530.834895806	6.0
7.5264	530.90201794	6.0
7.5366	530.968831783	8.0
7.5469	531.035989269	3.0
7.5571	531.102187787	4.0
7.5674	531.168726783	2.0
7.5776	531.234315643	5.0
7.5878	531.299603257	4.0
7.5981	531.365226662	2.0
7.6083	531.429913006	4.0
7.6186	531.49493205	4.0
7.6288	531.559022663	4.0
7.639	531.62281891	7.0
7.6493	531.686943278	6.0
7.6595	531.750151991	6.0
7.6698	531.813685802	1.0
7.68	531.876312392	3.0
7.6902	531.93865134	3.0
7.7005	532.001310913	1.0
7.7107	532.063075748	5.0
7.721	532.125158255	4.0
7.7312	532.186354264	7.0
7.7414	532.247269202	4.0
7.7517	532.308497441	4.0
7.7619	532.36885138	8.0
7.7722	532.429515735	1.0
7.7824	532.489313842	7.0
7.7926	532.548837298	1.0
7.8029	532.6086669	3.0
7.8131	532.667642172	4.0
7.8234	532.72692077	4.0
7.8336	532.785352907	6.0
