TL-DOS Lehrstuhlversuch
detector=R1407305
job_number=2015-10-26-005
irradiation_dose [mSv]=10.0

[BEGIN DATA]
time [sec] 	 temperature [K] 	 photoncount 
0.0	63.1190390238	0.0
0.0102	65.794121937	0.0
0.0205	68.480344879	1.0
0.0307	71.125631482	1.0
0.041	73.781934031	2.0
0.0512	76.3977562088	1.0
0.0614	78.9990405388	2.0
0.0717	81.6111575731	3.0
0.0819	84.1834675955	1.0
0.0922	86.7664896627	1.0
0.1024	89.3101481069	1.0
0.1126	91.8396697647	0.0
0.1229	94.3797252807	2.0
0.1331	96.8810719568	3.0
0.1434	99.3928351601	1.0
0.1536	101.866320681	2.0
0.1638	104.326059412	0.0
0.1741	106.796041399	3.0
0.1843	109.228382423	2.0
0.1946	111.67085261	2.0
0.2048	114.076101095	2.0
0.215	116.467982029	2.0
0.2253	118.869823634	0.0
0.2355	121.235062693	1.0
0.2458	123.610151476	0.0
0.256	125.949045409	1.0
0.2662	128.274940566	0.0
0.2765	130.610521606	0.0
0.2867	132.910509867	1.0
0.297	135.220076126	0.0
0.3072	137.494446055	1.0
0.3174	139.756175811	0.0
0.3277	142.027324242	0.0
0.3379	144.263861806	0.0
0.3482	146.509713136	0.0
0.3584	148.721339111	0.0
0.3686	150.920673623	0.0
0.3789	153.129166973	0.0
0.3891	155.30400428	0.0
0.3994	157.48789841	0.0
0.4096	159.638511374	0.0
0.4198	161.777171965	0.0
0.4301	163.924738724	0.0
0.4403	166.039577924	1.0
0.4506	168.163224093	0.0
0.4608	170.254507236	0.0
0.471	172.33416774	0.0
0.4813	174.422488716	0.0
0.4915	176.478985	0.0
0.5018	178.544045292	0.0
0.512	180.57763537	1.0
0.5222	182.599923447	0.0
0.5325	184.630633076	0.0
0.5427	186.630395974	0.0
0.553	188.63848662	0.0
0.5632	190.615975235	0.0
0.5734	192.582473642	0.0
0.5837	194.557161271	0.0
0.5939	196.50175591	0.0
0.6042	198.454448555	1.0
0.6144	200.3773834	0.0
0.6246	202.289631228	0.0
0.6349	204.209842359	1.0
0.6451	206.100790687	1.0
0.6554	207.999613619	0.0
0.6656	209.86949969	0.0
0.6758	211.728993571	0.0
0.6861	213.596231069	0.0
0.6963	215.435013049	0.0
0.7066	217.281452392	3.0
0.7168	219.099753167	1.0
0.727	220.907948447	0.0
0.7373	222.723673717	0.0
0.7475	224.511728481	0.0
0.7578	226.307229363	0.0
0.768	228.075367947	0.0
0.7782	229.83367982	0.0
0.7885	231.59931395	1.0
0.7987	233.338040932	0.0
0.809	235.084008612	0.0
0.8192	236.803368849	0.0
0.8294	238.513173468	0.0
0.8397	240.230098342	0.0
0.8499	241.920858367	0.0
0.8602	243.618659338	1.0
0.8704	245.290586896	0.0
0.8806	246.953222451	1.0
0.8909	248.622781831	3.0
0.9011	250.266898182	1.0
0.9114	251.917861238	0.0
0.9216	253.543664661	0.0
0.9318	255.160432423	0.0
0.9421	256.783933	3.0
0.9523	258.382692455	1.0
0.9626	259.988109733	1.0
0.9728	261.569061466	2.0
0.983	263.141226808	1.0
0.9933	264.719939225	1.0
1.0035	266.274593063	0.0
1.0138	267.835721051	0.0
1.024	269.373058436	0.0
1.0342	270.901851824	1.0
1.0445	272.437011669	3.0
1.0547	273.948776649	3.0
1.065	275.466837175	1.0
1.0752	276.961763417	3.0
1.0854	278.44838137	2.0
1.0957	279.941190146	0.0
1.1059	281.411249461	4.0
1.1162	282.887430643	2.0
1.1264	284.341115757	4.0
1.1366	285.786721785	3.0
1.1469	287.238347848	7.0
1.1571	288.667852047	7.0
1.1674	290.103309228	3.0
1.1776	291.516890949	1.0
1.1878	292.922616465	4.0
1.1981	294.334195938	4.0
1.2083	295.724263833	5.0
1.2186	297.120120482	5.0
1.2288	298.494705158	4.0
1.239	299.861650361	2.0
1.2493	301.234288027	7.0
1.2595	302.586007562	6.0
1.2698	303.943356155	4.0
1.28	305.280019613	12.0
1.2902	306.609254352	8.0
1.3005	307.944024513	14.0
1.3107	309.25845362	8.0
1.321	310.578356494	15.0
1.3312	311.878144882	14.0
1.3414	313.17070949	5.0
1.3517	314.468656812	14.0
1.3619	315.746824237	20.0
1.3722	317.030314422	12.0
1.3824	318.294245028	21.0
1.3926	319.551151138	19.0
1.4029	320.813291468	16.0
1.4131	322.056197577	18.0
1.4234	323.304279604	19.0
1.4336	324.53334165	25.0
1.4438	325.755572989	20.0
1.4541	326.982894148	22.0
1.4643	328.191511708	34.0
1.4746	329.405162397	35.0
1.4848	330.600317816	41.0
1.495	331.78883097	32.0
1.5053	332.982293528	44.0
1.5155	334.157568473	59.0
1.5258	335.337737694	42.0
1.536	336.499921882	57.0
1.5462	337.655647047	59.0
1.5565	338.816185077	62.0
1.5667	339.959037241	62.0
1.577	341.106648661	82.0
1.5872	342.236771209	81.0
1.5974	343.360612921	89.0
1.6077	344.489134724	94.0
1.6179	345.600458567	94.0
1.6282	346.716410372	102.0
1.6384	347.815355777	113.0
1.6486	348.908193618	120.0
1.6589	350.005582437	102.0
1.6691	351.086247745	132.0
1.6794	352.171413341	150.0
1.6896	353.240041699	163.0
1.6998	354.302730985	181.0
1.7101	355.3698457	223.0
1.7203	356.420698261	192.0
1.7306	357.475926959	209.0
1.7408	358.515074638	230.0
1.751	359.54844709	242.0
1.7613	360.586122884	243.0
1.7715	361.607985155	309.0
1.7818	362.634102836	298.0
1.792	363.644583133	315.0
1.8022	364.649447524	357.0
1.8125	365.658496541	362.0
1.8227	366.652168288	396.0
1.833	367.649978051	367.0
1.8432	368.632581823	439.0
1.8534	369.609724618	487.0
1.8637	370.590936595	485.0
1.8739	371.557195523	510.0
1.8842	372.527478307	568.0
1.8944	373.482974596	600.0
1.9046	374.433160562	609.0
1.9149	375.387303452	637.0
1.9251	376.326905807	710.0
1.9354	377.270421012	775.0
1.9456	378.199557642	734.0
1.9558	379.123530447	769.0
1.9661	380.051351015	799.0
1.9763	380.965032184	869.0
1.9866	381.882518258	901.0
1.9968	382.786022423	971.0
2.007	383.684505221	1004.0
2.0173	384.586729631	1046.0
2.0275	385.475204712	1165.0
2.0378	386.36737973	1211.0
2.048	387.245958565	1192.0
2.0582	388.119654558	1265.0
2.0685	388.996988942	1331.0
2.0787	389.860953305	1368.0
2.089	390.728515534	1396.0
2.0992	391.582856662	1435.0
2.1094	392.432449654	1497.0
2.1197	393.285580664	1514.0
2.1299	394.125710496	1519.0
2.1402	394.969338938	1499.0
2.1504	395.800111016	1680.0
2.1606	396.626265946	1676.0
2.1709	397.455861289	1777.0
2.1811	398.272814123	1764.0
2.1914	399.093169049	1748.0
2.2016	399.901022285	1829.0
2.2118	400.704385748	1777.0
2.2221	401.511094712	1766.0
2.2323	402.305509942	1742.0
2.2426	403.103233408	1914.0
2.2528	403.888800074	1829.0
2.263	404.670000827	1875.0
2.2733	405.454454788	1709.0
2.2835	406.226954167	1801.0
2.2938	407.002670517	1731.0
2.304	407.76656544	1774.0
2.3142	408.526214896	1576.0
2.3245	409.289027811	1609.0
2.3347	410.04021594	1514.0
2.345	410.794532292	1581.0
2.3552	411.537353341	1606.0
2.3654	412.276046043	1479.0
2.3757	413.017814933	1494.0
2.3859	413.748279734	1427.0
2.3962	414.481786459	1419.0
2.4064	415.204115006	1266.0
2.4166	415.922429097	1250.0
2.4269	416.643734511	1305.0
2.4371	417.354047688	1224.0
2.4474	418.067318869	1137.0
2.4576	418.769720249	1195.0
2.4678	419.468217922	1150.0
2.4781	420.169624395	1053.0
2.4883	420.860341878	1072.0
2.4986	421.553935761	1014.0
2.5088	422.236959713	980.0
2.519	422.916187651	969.0
2.5293	423.598244143	1033.0
2.5395	424.269906526	1027.0
2.5498	424.944365958	1027.0
2.56	425.608547054	1055.0
2.5702	426.269036859	1117.0
2.5805	426.932277185	1168.0
2.5907	427.585410149	1093.0
2.601	428.241262999	1197.0
2.6112	428.887121065	1162.0
2.6214	429.529389673	1189.0
2.6317	430.174332924	1194.0
2.6419	430.809447647	1304.0
2.6522	431.447207221	1270.0
2.6624	432.075247743	1300.0
2.6726	432.699797829	1393.0
2.6829	433.326948772	1393.0
2.6931	433.944542331	1394.0
2.7034	434.564707777	1426.0
2.7136	435.175422293	1476.0
2.7238	435.782742667	1535.0
2.7341	436.392592145	1529.0
2.7443	436.993147903	1585.0
2.7546	437.596204597	1669.0
2.7648	438.190071087	1697.0
2.775	438.78063707	1746.0
2.7853	439.373662387	1786.0
2.7955	439.957650373	1743.0
2.8058	440.5440703	1761.0
2.816	441.121553558	1861.0
2.8262	441.695827361	1863.0
2.8365	442.272492651	1862.0
2.8467	442.840369927	1960.0
2.857	443.410612052	1970.0
2.8672	443.972164049	2048.0
2.8774	444.53059513	1995.0
2.8877	445.091351724	1999.0
2.8979	445.643562742	1929.0
2.9082	446.19807337	2044.0
2.9184	446.744133606	1997.0
2.9286	447.287159026	2049.0
2.9389	447.832445803	2029.0
2.9491	448.369422755	2104.0
2.9594	448.908635876	2018.0
2.9696	449.43963173	2126.0
2.9798	449.96767649	2028.0
2.9901	450.497920223	2068.0
3.0003	451.020083376	2090.0
3.0106	451.544421009	2008.0
3.0208	452.060768068	2064.0
3.031	452.574245446	1994.0
3.0413	453.089861132	2094.0
3.0515	453.597619162	1959.0
3.0618	454.107491682	2007.0
3.072	454.609594068	1896.0
3.0822	455.10890594	1927.0
3.0925	455.61029713	1920.0
3.1027	456.104047436	1812.0
3.113	456.599853899	1902.0
3.1232	457.088104585	1841.0
3.1334	457.573641741	1868.0
3.1437	458.061200852	1916.0
3.1539	458.54132987	1784.0
3.1642	459.023458322	1757.0
3.1744	459.498239441	1772.0
3.1846	459.970381888	1716.0
3.1949	460.444490511	1705.0
3.2051	460.911374017	1685.0
3.2154	461.380201799	1755.0
3.2256	461.841884941	1717.0
3.2358	462.301002206	1749.0
3.2461	462.762031404	1714.0
3.2563	463.216034808	1686.0
3.2666	463.67192885	1672.0
3.2768	464.120875354	1663.0
3.287	464.567326768	1737.0
3.2973	465.015637368	1760.0
3.3075	465.457115999	1614.0
3.3178	465.900433109	1726.0
3.328	466.336994347	1709.0
3.3382	466.771129326	1717.0
3.3485	467.207072203	1739.0
3.3587	467.636371586	1715.0
3.369	468.06745873	1706.0
3.3792	468.491976378	1719.0
3.3894	468.914134702	1745.0
3.3997	469.338051048	1751.0
3.4099	469.755507177	1740.0
3.4202	470.174701747	1741.0
3.4304	470.587508057	1658.0
3.4406	470.99802013	1731.0
3.4509	471.410241726	1751.0
3.4611	471.816181326	1727.0
3.4714	472.223811407	1705.0
3.4816	472.625229464	1837.0
3.4918	473.024416577	1673.0
3.5021	473.425266051	1710.0
3.5123	473.820006832	1783.0
3.5226	474.216391459	1727.0
3.5328	474.606735436	1718.0
3.543	474.994910013	1763.0
3.5533	475.384701092	1673.0
3.5635	475.768552002	1731.0
3.5738	476.154001408	1674.0
3.584	476.533576808	1709.0
3.5942	476.911042658	1652.0
3.6045	477.290080415	1665.0
3.6147	477.663341876	1696.0
3.625	478.038157735	1684.0
3.6352	478.407261637	1583.0
3.6454	478.774314185	1644.0
3.6557	479.142895276	1672.0
3.6659	479.505859423	1580.0
3.6762	479.870335087	1617.0
3.6864	480.229256372	1605.0
3.6966	480.586182895	1634.0
3.7069	480.944595791	1552.0
3.7171	481.297546701	1617.0
3.7274	481.651967429	1515.0
3.7376	482.000987009	1540.0
3.7478	482.348066857	1554.0
3.7581	482.696592073	1536.0
3.7683	483.039805985	1526.0
3.7786	483.384449166	1560.0
3.7888	483.723840203	1551.0
3.799	484.061345021	1486.0
3.8093	484.400255332	1485.0
3.8195	484.734000865	1477.0
3.8298	485.069136236	1404.0
3.84	485.399164357	1470.0
3.8502	485.727358294	1458.0
3.8605	486.056918951	1465.0
3.8707	486.381457312	1469.0
3.881	486.70734717	1443.0
3.8912	487.028270673	1407.0
3.9014	487.347410592	1482.0
3.9117	487.667879527	1419.0
3.9219	487.983464718	1402.0
3.9322	488.300364123	1402.0
3.9424	488.61243418	1339.0
3.9526	488.922769859	1398.0
3.9629	489.234397889	1334.0
3.9731	489.541276905	1385.0
3.9834	489.849433879	1440.0
3.9936	490.152894735	1384.0
4.0038	490.454669059	1319.0
4.0141	490.757700082	1402.0
4.0243	491.056113104	1396.0
4.0346	491.355768827	1353.0
4.0448	491.650857987	1379.0
4.055	491.944307142	1370.0
4.0653	492.238978327	1378.0
4.0755	492.52915891	1394.0
4.0858	492.820547911	1384.0
4.096	493.107496328	1341.0
4.1062	493.392849984	1449.0
4.1165	493.679391957	1323.0
4.1267	493.961567211	1384.0
4.137	494.244917547	1385.0
4.1472	494.523949804	1382.0
4.1574	494.801431294	1352.0
4.1677	495.080068319	1332.0
4.1779	495.354459092	1399.0
4.1882	495.629992529	1350.0
4.1984	495.90132701	1283.0
4.2086	496.171153507	1363.0
4.2189	496.442103661	1356.0
4.2291	496.708924706	1396.0
4.2394	496.976856892	1335.0
4.2496	497.24070596	1324.0
4.2598	497.503088646	1369.0
4.2701	497.766563989	1282.0
4.2803	498.026024135	1341.0
4.2906	498.286564768	1388.0
4.3008	498.543134927	1373.0
4.311	498.798279156	1415.0
4.3213	499.0544859	1311.0
4.3315	499.306788215	1357.0
4.3418	499.56014121	1371.0
4.352	499.809633265	1312.0
4.3622	500.057738728	1323.0
4.3725	500.306877394	1267.0
4.3827	500.552219344	1296.0
4.393	500.798582988	1282.0
4.4032	501.041192206	1322.0
4.4134	501.282453084	1204.0
4.4237	501.524718662	1207.0
4.4339	501.763292265	1260.0
4.4442	502.002859377	1257.0
4.4544	502.238775637	1234.0
4.4646	502.473380755	1224.0
4.4749	502.708962855	1172.0
4.4851	502.940954833	1163.0
4.4954	503.173912911	1200.0
4.5056	503.403320855	1177.0
4.5158	503.631453828	1113.0
4.5261	503.86053683	1091.0
4.5363	504.086128752	1169.0
4.5466	504.312660122	1100.0
4.5568	504.535739297	1085.0
4.567	504.757578675	1019.0
4.5773	504.980341873	1015.0
4.5875	505.1997103	1009.0
4.5978	505.419992259	1017.0
4.608	505.636917259	990.0
4.6182	505.852636665	951.0
4.6285	506.069254405	937.0
4.6387	506.282571028	912.0
4.649	506.49677598	913.0
4.6592	506.707716584	828.0
4.6694	506.917484852	833.0
4.6797	507.128126672	743.0
4.6899	507.335558444	800.0
4.7002	507.543854038	782.0
4.7104	507.748975339	789.0
4.7206	507.952956645	795.0
4.7309	508.157787405	638.0
4.7411	508.359496674	699.0
4.7514	508.562045934	642.0
4.7616	508.761508471	687.0
4.7718	508.959862464	626.0
4.7821	509.159042476	635.0
4.7923	509.35518711	623.0
4.8026	509.552148563	585.0
4.8128	509.746108447	514.0
4.823	509.938990369	561.0
4.8333	510.132675522	493.0
4.8435	510.323409035	475.0
4.8538	510.514936834	484.0
4.864	510.703545869	475.0
4.8742	510.89110668	479.0
4.8845	511.079448563	387.0
4.8947	511.264920235	408.0
4.905	511.451164279	357.0
4.9152	511.634570082	385.0
4.9254	511.816956578	374.0
4.9357	512.000102598	323.0
4.9459	512.180457589	339.0
4.9562	512.361563644	315.0
4.9664	512.539909757	299.0
4.9766	512.717264683	281.0
4.9869	512.895358181	283.0
4.9971	513.070737646	255.0
5.0074	513.246847456	258.0
5.0176	513.420273464	270.0
5.0278	513.592735629	226.0
5.0381	513.76591599	185.0
5.0483	513.936457192	209.0
5.0586	514.10770859	179.0
5.0688	514.276350225	211.0
5.079	514.444054607	191.0
5.0893	514.612457372	155.0
5.0995	514.778293786	170.0
5.1098	514.944820803	165.0
5.12	515.108810054	141.0
5.1302	515.271887908	148.0
5.1405	515.435644878	125.0
5.1507	515.596906296	123.0
5.161	515.758839266	125.0
5.1712	515.91830448	120.0
5.1814	516.07688344	93.0
5.1917	516.236122781	113.0
5.2019	516.392935416	88.0
5.2122	516.550401076	85.0
5.2224	516.705467059	92.0
5.2326	516.859671238	82.0
5.2429	517.01451758	87.0
5.2531	517.167004162	77.0
5.2634	517.320125753	78.0
5.2736	517.470913869	72.0
5.2838	517.620863956	55.0
5.2941	517.77143849	56.0
5.3043	517.919718363	60.0
5.3146	518.068615728	73.0
5.3248	518.215243991	57.0
5.335	518.361057345	41.0
5.3453	518.507477919	46.0
5.3555	518.651667136	36.0
5.3658	518.79645681	39.0
5.376	518.939039981	50.0
5.3862	519.080830723	43.0
5.3965	519.223211934	32.0
5.4067	519.363423346	35.0
5.417	519.504218649	38.0
5.4272	519.642868321	30.0
5.4374	519.780747425	30.0
5.4477	519.919200708	28.0
5.4579	520.055544051	28.0
5.4682	520.192455178	23.0
5.4784	520.327279866	32.0
5.4886	520.461355244	24.0
5.4989	520.595988962	25.0
5.5091	520.728570946	21.0
5.5194	520.861705051	20.0
5.5296	520.992810276	25.0
5.5398	521.123186863	30.0
5.5501	521.254106387	22.0
5.5603	521.383030779	20.0
5.5706	521.51249206	25.0
5.5808	521.639980433	18.0
5.591	521.766760269	10.0
5.6013	521.894068063	13.0
5.6115	522.019435766	27.0
5.6218	522.145325547	23.0
5.632	522.269296847	13.0
5.6422	522.392579157	23.0
5.6525	522.51637486	16.0
5.6627	522.638283994	20.0
5.673	522.760700803	17.0
5.6832	522.881252057	14.0
5.6934	523.001133329	17.0
5.7037	523.12151383	15.0
5.7139	523.240059808	11.0
5.7242	523.359099456	16.0
5.7344	523.476325014	11.0
5.7446	523.592899073	13.0
5.7549	523.709958589	12.0
5.7651	523.825234192	9.0
5.7754	523.940989845	9.0
5.7856	524.054981455	14.0
5.7958	524.168339539	9.0
5.8061	524.282169687	5.0
5.8163	524.394265136	6.0
5.8266	524.506827392	15.0
5.8368	524.61767427	9.0
5.847	524.727905098	17.0
5.8573	524.838594969	11.0
5.8675	524.947597996	11.0
5.8778	525.057054951	9.0
5.888	525.164843852	8.0
5.8982	525.272033699	9.0
5.9085	525.379669923	11.0
5.9187	525.48566584	17.0
5.929	525.592103163	12.0
5.9392	525.696918448	12.0
5.9494	525.801151205	6.0
5.9597	525.905818026	12.0
5.9699	526.008889791	16.0
5.9802	526.112390785	12.0
5.9904	526.214314489	7.0
6.0006	526.315671736	14.0
6.0109	526.417451071	6.0
6.0211	526.517679354	9.0
6.0314	526.618325024	7.0
6.0416	526.717436918	4.0
6.0518	526.815997982	6.0
6.0621	526.91496949	7.0
6.0723	527.012432735	12.0
6.0826	527.110301853	8.0
6.0928	527.206679508	6.0
6.103	527.302521528	9.0
6.1133	527.39876267	8.0
6.1235	527.493537157	6.0
6.1338	527.58870632	9.0
6.144	527.682425166	10.0
6.1542	527.775623154	10.0
6.1645	527.869209253	11.0
6.1747	527.961369159	4.0
6.185	528.053912852	9.0
6.1952	528.145046238	10.0
6.2054	528.235673136	8.0
6.2157	528.326677438	4.0
6.2259	528.416294891	8.0
6.2362	528.506285545	9.0
6.2464	528.594904798	14.0
6.2566	528.683031535	6.0
6.2669	528.771525265	2.0
6.2771	528.858670406	5.0
6.2874	528.946178451	10.0
6.2976	529.032352929	7.0
6.3078	529.118048479	7.0
6.3181	529.204100897	5.0
6.3283	529.28884193	7.0
6.3386	529.373935856	4.0
6.3488	529.457733004	3.0
6.359	529.541064437	5.0
6.3693	529.624742892	10.0
6.3795	529.70714614	6.0
6.3898	529.789892546	6.0
6.4	529.871377948	6.0
6.4102	529.952410483	12.0
6.4205	530.033780467	9.0
6.4307	530.113910424	11.0
6.441	530.194374072	10.0
6.4512	530.273611504	8.0
6.4614	530.352408562	10.0
6.4717	530.43153376	5.0
6.4819	530.509453139	10.0
6.4922	530.587697004	11.0
6.5024	530.664748482	8.0
6.5126	530.741371733	7.0
6.5229	530.818314073	4.0
6.5331	530.894083859	7.0
6.5434	530.970169179	8.0
6.5536	531.045095007	9.0
6.5638	531.119604422	10.0
6.5741	531.194424122	7.0
6.5843	531.268103618	8.0
6.5946	531.342089941	13.0
6.6048	531.41494876	8.0
6.615	531.487402654	4.0
6.6253	531.560158274	8.0
6.6355	531.631805143	4.0
6.6458	531.703750376	6.0
6.656	531.77459921	9.0
6.6662	531.84505429	9.0
6.6765	531.91580277	4.0
6.6867	531.985473089	9.0
6.697	532.05543354	8.0
6.7072	532.124327839	9.0
6.7174	532.192839246	4.0
6.7277	532.26163596	5.0
6.7379	532.329384256	4.0
6.7482	532.39741468	6.0
6.7584	532.464408364	8.0
6.7686	532.531029719	7.0
6.7789	532.597928511	8.0
6.7891	532.663807807	5.0
6.7994	532.729961449	7.0
6.8096	532.795106951	5.0
6.8198	532.859890397	2.0
6.8301	532.924943625	6.0
6.8403	532.989005482	11.0
6.8506	533.053334117	7.0
6.8608	533.116682424	5.0
6.871	533.179678663	8.0
6.8813	533.242937242	11.0
6.8915	533.305231799	8.0
6.9018	533.367785774	4.0
6.912	533.429386466	5.0
6.9222	533.490644803	2.0
6.9325	533.552158241	9.0
6.9427	533.612734254	8.0
6.953	533.673562528	5.0
6.9632	533.733463817	13.0
6.9734	533.793032195	7.0
6.9837	533.852848637	3.0
6.9939	533.911753515	6.0
7.0042	533.970903695	5.0
7.0144	534.029152463	5.0
7.0246	534.087077505	6.0
7.0349	534.145243767	6.0
7.0451	534.202523613	3.0
7.0554	534.260041993	6.0
7.0656	534.316683829	7.0
7.0758	534.373010869	5.0
7.0861	534.429572476	5.0
7.0963	534.485272119	6.0
7.1066	534.541203716	6.0
7.1168	534.596282952	8.0
7.127	534.651056075	4.0
7.1373	534.706057294	3.0
7.1475	534.760220329	9.0
7.1578	534.814608919	10.0
7.168	534.868168661	9.0
7.1782	534.921430737	3.0
7.1885	534.974914615	7.0
7.1987	535.027583433	3.0
7.209	535.080471583	6.0
7.2192	535.132553751	6.0
7.2294	535.184346465	6.0
7.2397	535.236354862	9.0
7.2499	535.287570684	3.0
7.2602	535.338999787	8.0
7.2704	535.389645144	5.0
7.2806	535.440009031	6.0
7.2909	535.490582651	5.0
7.3011	535.540385562	4.0
7.3114	535.59039587	8.0
7.3216	535.639644053	5.0
7.3318	535.688618531	4.0
7.3421	535.737796957	3.0
7.3523	535.786225935	2.0
7.3626	535.834856589	5.0
7.3728	535.882746143	5.0
7.383	535.930369542	5.0
7.3933	535.978191263	5.0
7.4035	536.025284212	9.0
7.4138	536.072573272	4.0
7.424	536.119141677	2.0
7.4342	536.165451271	5.0
7.4445	536.211953715	6.0
7.4547	536.257747492	1.0
7.465	536.30373197	4.0
7.4752	536.349015674	5.0
7.4854	536.394047706	5.0
7.4957	536.439267269	4.0
7.5059	536.483797714	3.0
7.5162	536.5285136	4.0
7.5264	536.572548044	1.0
7.5366	536.61633776	6.0
7.5469	536.660309833	6.0
7.5571	536.703611798	4.0
7.5674	536.747094089	9.0
7.5776	536.789913738	7.0
7.5878	536.832495409	5.0
7.5981	536.875254407	3.0
7.6083	536.917361784	8.0
7.6186	536.959644511	3.0
7.6288	537.001282877	7.0
7.639	537.042689831	4.0
7.6493	537.084269219	5.0
7.6595	537.125214963	7.0
7.6698	537.16633122	3.0
7.68	537.206820891	2.0
7.6902	537.247085535	5.0
7.7005	537.287517855	3.0
7.7107	537.327334013	0.0
7.721	537.367315979	1.0
7.7312	537.406688646	5.0
7.7414	537.445842492	6.0
7.7517	537.48515939	2.0
