TL-DOS Lehrstuhlversuch
detector=R1407403
job_number=2015-11-04-004
irradiation_dose [mSv]=0.09

[BEGIN DATA]
time [sec] 	 temperature [K] 	 photoncount 
0.0	227.194443511	0.0
0.0102	228.158315297	0.0
0.0205	229.129031008	2.0
0.0307	230.087748693	4.0
0.041	231.053273705	1.0
0.0512	232.006864848	1.0
0.0614	232.957915446	3.0
0.0717	233.915718933	0.0
0.0819	234.861683988	1.0
0.0922	235.814365821	2.0
0.1024	236.755272527	0.0
0.1126	237.693672481	1.0
0.1229	238.638735499	0.0
0.1331	239.572117556	1.0
0.1434	240.512127048	0.0
0.1536	241.440518041	4.0
0.1638	242.366435628	2.0
0.1741	243.298927647	0.0
0.1843	244.219894083	1.0
0.1946	245.147399797	1.0
0.2048	246.063441559	0.0
0.215	246.977042815	0.0
0.2253	247.897131052	1.0
0.2355	248.805847017	1.0
0.2458	249.721015276	0.0
0.256	250.624872073	1.0
0.2662	251.526320827	0.0
0.2765	252.434170274	0.0
0.2867	253.330798721	0.0
0.297	254.233793634	0.0
0.3072	255.125627548	1.0
0.3174	256.01508545	0.0
0.3277	256.910858904	0.0
0.3379	257.795560617	0.0
0.3482	258.686544111	1.0
0.3584	259.566515067	0.0
0.3686	260.444141617	0.0
0.3789	261.327999711	0.0
0.3891	262.200933336	0.0
0.3994	263.080065185	0.0
0.4096	263.948330981	0.0
0.4198	264.814283556	0.0
0.4301	265.686384784	0.0
0.4403	266.547706859	0.0
0.4506	267.415144709	0.0
0.4608	268.271861045	0.0
0.471	269.126294929	1.0
0.4813	269.986795679	0.0
0.4915	270.836660657	1.0
0.5018	271.69256006	0.0
0.512	272.537880564	0.0
0.5222	273.380948976	0.0
0.5325	274.230003555	0.0
0.5427	275.068563836	0.0
0.553	275.913078273	0.0
0.5632	276.747154529	0.0
0.5734	277.57900865	0.0
0.5837	278.416769311	0.0
0.5939	279.244175267	0.0
0.6042	280.077456178	0.0
0.6144	280.900437755	0.0
0.6246	281.721226755	0.0
0.6349	282.547843727	0.0
0.6451	283.36424373	0.0
0.6554	284.186440542	0.0
0.6656	284.998475017	0.0
0.6758	285.808346082	0.0
0.6861	286.623967596	1.0
0.6963	287.429508045	0.0
0.7066	288.240768194	0.0
0.7168	289.042001185	0.0
0.727	289.841099541	0.0
0.7373	290.645871857	2.0
0.7475	291.440697202	0.0
0.7578	292.241166167	0.0
0.768	293.031741351	0.0
0.7782	293.820210295	1.0
0.7885	294.614277725	0.0
0.7987	295.398530497	0.0
0.809	296.188351818	1.0
0.8192	296.968410963	0.0
0.8294	297.746391885	1.0
0.8397	298.529896823	0.0
0.8499	299.303717656	1.0
0.8602	300.083032966	0.0
0.8704	300.852715954	2.0
0.8806	301.620348363	1.0
0.8909	302.393431309	0.0
0.9011	303.156958965	0.0
0.9114	303.925908012	0.0
0.9216	304.685352864	0.0
0.9318	305.442774414	0.0
0.9421	306.205573998	0.0
0.9523	306.958945395	0.0
0.9626	307.717666069	0.0
0.9728	308.46700897	0.0
0.983	309.214355483	0.0
0.9933	309.967008493	0.0
1.0035	310.710358726	0.0
1.0138	311.458987082	0.0
1.024	312.198362407	0.0
1.0342	312.935767898	0.0
1.0445	313.6784093	0.0
1.0547	314.41187167	0.0
1.065	315.150541954	0.0
1.0752	315.880082287	0.0
1.0854	316.60767899	0.0
1.0957	317.340441957	0.0
1.1059	318.064147988	0.0
1.1162	318.79299266	0.0
1.1264	319.512828825	1.0
1.1366	320.230747213	0.0
1.1469	320.953763146	1.0
1.1571	321.667842616	0.0
1.1674	322.386992372	0.0
1.1776	323.097253452	1.0
1.1878	323.805622264	0.0
1.1981	324.519020815	0.0
1.2083	325.223601773	0.0
1.2186	325.933185575	0.0
1.2288	326.633998935	0.0
1.239	327.332945197	1.0
1.2493	328.036854293	1.0
1.2595	328.732063087	0.0
1.2698	329.432208178	0.0
1.28	330.123699489	0.0
1.2902	330.813348538	0.0
1.3005	331.507894406	1.0
1.3107	332.193855702	1.0
1.321	332.884687633	0.0
1.3312	333.566980894	0.0
1.3414	334.2474564	1.0
1.3517	334.932763588	1.0
1.3619	335.609600394	1.0
1.3722	336.291243046	0.0
1.3824	336.964460609	5.0
1.3926	337.635884594	1.0
1.4029	338.312075993	0.0
1.4131	338.97990968	2.0
1.4234	339.652485287	0.0
1.4336	340.316747874	1.0
1.4438	340.979240741	0.0
1.4541	341.646437606	0.0
1.4643	342.305387932	0.0
1.4746	342.969017102	0.0
1.4848	343.624443829	1.0
1.495	344.278124377	0.0
1.5053	344.936446352	0.0
1.5155	345.58663148	1.0
1.5258	346.241433217	1.0
1.536	346.888141617	0.0
1.5462	347.533127065	1.0
1.5565	348.182692201	1.0
1.5667	348.824228726	1.0
1.577	349.470320449	0.0
1.5872	350.108426491	0.0
1.5974	350.7448325	0.0
1.6077	351.385757278	0.0
1.6179	352.018760239	1.0
1.6282	352.656257807	1.0
1.6384	353.285875918	0.0
1.6486	353.913816609	2.0
1.6589	354.546215962	0.0
1.6691	355.170798872	1.0
1.6794	355.799816602	0.0
1.6896	356.421059686	1.0
1.6998	357.040647663	0.0
1.7101	357.664634994	2.0
1.7203	358.280909853	0.0
1.7306	358.901560543	2.0
1.7408	359.514540002	0.0
1.751	360.12588637	2.0
1.7613	360.741573573	3.0
1.7715	361.349650895	0.0
1.7818	361.96204584	6.0
1.792	362.566871596	0.0
1.8022	363.170085983	3.0
1.8125	363.777583464	2.0
1.8227	364.377572289	1.0
1.833	364.981821305	3.0
1.8432	365.578601816	4.0
1.8534	366.173792392	1.0
1.8637	366.77320909	2.0
1.8739	367.365217009	0.0
1.8842	367.961428452	4.0
1.8944	368.550270734	0.0
1.9046	369.13754423	2.0
1.9149	369.728987632	4.0
1.9251	370.313120806	5.0
1.9354	370.90140159	1.0
1.9456	371.482411234	3.0
1.9558	372.061872961	2.0
1.9661	372.645449127	0.0
1.9763	373.221812304	2.0
1.9866	373.802267919	2.0
1.9968	374.375549115	3.0
2.007	374.947302982	3.0
2.0173	375.523116561	3.0
2.0275	376.091813094	5.0
2.0378	376.66454763	5.0
2.048	377.230203179	4.0
2.0582	377.794351716	4.0
2.0685	378.362505962	4.0
2.0787	378.923637832	2.0
2.089	379.488753993	3.0
2.0992	380.046885329	7.0
2.1094	380.603529699	5.0
2.1197	381.164126495	4.0
2.1299	381.717794326	3.0
2.1402	382.275393449	7.0
2.1504	382.826100658	5.0
2.1606	383.37534068	8.0
2.1709	383.928480554	3.0
2.1811	384.47478363	5.0
2.1914	385.024965705	4.0
2.2016	385.568347541	5.0
2.2118	386.110281705	9.0
2.2221	386.656063847	6.0
2.2323	387.195100133	6.0
2.2426	387.73796382	7.0
2.2528	388.274117722	2.0
2.263	388.80884321	12.0
2.2733	389.347365491	7.0
2.2835	389.879231647	6.0
2.2938	390.414874293	14.0
2.304	390.943896407	9.0
2.3142	391.471509106	13.0
2.3245	392.002868095	12.0
2.3347	392.527659497	7.0
2.345	393.056177154	8.0
2.3552	393.578162344	6.0
2.3654	394.098756868	15.0
2.3757	394.623047849	10.0
2.3859	395.140858603	12.0
2.3962	395.662346047	18.0
2.4064	396.177387917	16.0
2.4166	396.69105762	18.0
2.4269	397.208374609	9.0
2.4371	397.71929757	7.0
2.4474	398.233848315	14.0
2.4576	398.742039224	22.0
2.4678	399.248876217	15.0
2.4781	399.759311981	15.0
2.4883	400.263438769	15.0
2.4986	400.771145086	21.0
2.5088	401.272576162	14.0
2.519	401.772671333	17.0
2.5293	402.276317405	9.0
2.5395	402.773738421	11.0
2.5498	403.274691352	12.0
2.56	403.769452514	20.0
2.5702	404.26289554	16.0
2.5805	404.759842234	18.0
2.5907	405.250646677	18.0
2.601	405.744936054	14.0
2.6112	406.233116023	15.0
2.6214	406.71999539	14.0
2.6317	407.210331821	17.0
2.6419	407.694607702	14.0
2.6522	408.182322162	24.0
2.6624	408.66400848	14.0
2.6726	409.144411496	8.0
2.6829	409.62822559	16.0
2.6931	410.106059752	15.0
2.7034	410.587286752	14.0
2.7136	411.062565796	6.0
2.7238	411.536578608	10.0
2.7341	412.013957125	24.0
2.7443	412.485435253	19.0
2.7546	412.960261089	9.0
2.7648	413.429218087	14.0
2.775	413.896925696	16.0
2.7853	414.36795424	11.0
2.7955	414.83316088	12.0
2.8058	415.301670698	8.0
2.816	415.764389744	7.0
2.8262	416.22587602	13.0
2.8365	416.690639057	11.0
2.8467	417.149657632	11.0
2.857	417.611935446	8.0
2.8672	418.068499516	9.0
2.8774	418.523847213	12.0
2.8877	418.982428085	11.0
2.8979	419.435340907	9.0
2.9082	419.891469614	6.0
2.9184	420.341960579	9.0
2.9286	420.791251353	8.0
2.9389	421.243732294	13.0
2.9491	421.690620579	11.0
2.9594	422.140681973	12.0
2.9696	422.585180617	11.0
2.9798	423.028495034	7.0
2.9901	423.474957183	6.0
3.0003	423.915901069	11.0
3.0106	424.359975856	13.0
3.0208	424.798561887	11.0
3.031	425.235979444	8.0
3.0413	425.676502862	16.0
3.0515	426.11158142	14.0
3.0618	426.549749232	22.0
3.072	426.982501298	15.0
3.0822	427.414100432	14.0
3.0925	427.848764115	14.0
3.1027	428.278055364	13.0
3.113	428.710394774	16.0
3.1232	429.137390478	18.0
3.1334	429.563248586	14.0
3.1437	429.992130478	18.0
3.1539	430.415711399	19.0
3.1642	430.842299935	22.0
3.1744	431.263615846	22.0
3.1846	431.683809293	11.0
3.1949	432.106986303	13.0
3.2051	432.524932853	12.0
3.2154	432.945847013	19.0
3.2256	433.361558682	19.0
3.2358	433.776162817	21.0
3.2461	434.193710829	16.0
3.2563	434.606097956	16.0
3.2666	435.021413218	15.0
3.2768	435.431595192	16.0
3.287	435.840684364	18.0
3.2973	436.252678254	20.0
3.3075	436.659579908	23.0
3.3178	437.069370747	19.0
3.328	437.474096579	20.0
3.3382	437.877744147	21.0
3.3485	438.284257794	17.0
3.3587	438.685746941	15.0
3.369	439.090086842	15.0
3.3792	439.48942911	21.0
3.3894	439.887707456	21.0
3.3997	440.288813758	17.0
3.4099	440.684962394	16.0
3.4202	441.083923864	32.0
3.4304	441.477954178	10.0
3.4406	441.870934722	24.0
3.4509	442.266705606	19.0
3.4611	442.657584769	25.0
3.4714	443.05123935	21.0
3.4816	443.440028369	15.0
3.4918	443.827781582	20.0
3.5021	444.218288017	15.0
3.5123	444.6039678	20.0
3.5226	444.992386085	17.0
3.5328	445.376003526	24.0
3.543	445.75859894	22.0
3.5533	446.143910954	23.0
3.5635	446.524460518	15.0
3.5738	446.907712157	18.0
3.584	447.286226813	20.0
3.5942	447.663733035	16.0
3.6045	448.043919722	15.0
3.6147	448.419407309	13.0
3.625	448.797561028	20.0
3.6352	449.171040774	23.0
3.6454	449.5435255	18.0
3.6557	449.918655036	19.0
3.6659	450.289147979	15.0
3.6762	450.662271589	8.0
3.6864	451.030783398	13.0
3.6966	451.398313423	18.0
3.7069	451.768453077	16.0
3.7171	452.134017813	17.0
3.7274	452.502178223	14.0
3.7376	452.865788178	15.0
3.7478	453.228429408	18.0
3.7581	453.593645555	14.0
3.7683	453.954347637	13.0
3.7786	454.317610867	12.0
3.7888	454.67638417	17.0
3.799	455.034201635	17.0
3.8093	455.394559765	13.0
3.8195	455.750463876	15.0
3.8298	456.108895067	17.0
3.84	456.462896055	11.0
3.8502	456.815953919	15.0
3.8605	457.171518653	13.0
3.8707	457.522688614	9.0
3.881	457.87635204	12.0
3.8912	458.225644194	20.0
3.9014	458.574005768	14.0
3.9117	458.924840866	12.0
3.9219	459.27133965	16.0
3.9322	459.620298731	10.0
3.9424	459.964944685	23.0
3.9526	460.308672438	15.0
3.9629	460.654840813	14.0
3.9731	460.996730555	24.0
3.9834	461.341047867	9.0
3.9936	461.681109424	16.0
4.0038	462.020264995	13.0
4.0141	462.361828722	15.0
4.0243	462.699170729	18.0
4.0346	463.038908016	21.0
4.0448	463.374446158	18.0
4.055	463.709090363	15.0
4.0653	464.046110693	16.0
4.0755	464.378965458	16.0
4.0858	464.714183643	16.0
4.096	465.045258538	13.0
4.1062	465.375451387	14.0
4.1165	465.707988754	15.0
4.1267	466.036415967	19.0
4.137	466.367175161	20.0
4.1472	466.693846177	14.0
4.1574	467.019646882	23.0
4.1677	467.347760918	16.0
4.1779	467.671819472	13.0
4.1882	467.998178987	18.0
4.1984	468.320504705	9.0
4.2086	468.641971688	16.0
4.2189	468.965721231	16.0
4.2291	469.285469237	18.0
4.2394	469.607487597	13.0
4.2496	469.925525817	8.0
4.2598	470.242716724	17.0
4.2701	470.56215983	15.0
4.2803	470.877654625	12.0
4.2906	471.195389576	18.0
4.3008	471.509197329	19.0
4.311	471.822169039	10.0
4.3213	472.13736299	13.0
4.3315	472.44866115	16.0
4.3418	472.762169668	20.0
4.352	473.071803227	15.0
4.3622	473.380611864	14.0
4.3725	473.691613182	11.0
4.3827	473.998770529	12.0
4.393	474.308108833	13.0
4.4032	474.613623721	19.0
4.4134	474.918324661	17.0
4.4237	475.225189115	13.0
4.4339	475.52826073	16.0
4.4442	475.833484291	16.0
4.4544	476.134935294	11.0
4.4646	476.435583176	12.0
4.4749	476.738365794	11.0
4.4851	477.037406024	17.0
4.4954	477.338569575	13.0
4.5056	477.636010751	18.0
4.5158	477.932659488	13.0
4.5261	478.231414565	13.0
4.5363	478.526477035	4.0
4.5466	478.823634581	15.0
4.5568	479.117119267	10.0
4.567	479.409822054	16.0
4.5773	479.704603164	19.0
4.5875	479.995740785	6.0
4.5978	480.288945614	18.0
4.608	480.578526438	11.0
4.6182	480.867335764	11.0
4.6285	481.158195767	5.0
4.6387	481.445460746	10.0
4.649	481.734765436	18.0
4.6592	482.020494325	13.0
4.6694	482.30546198	5.0
4.6797	482.592453034	16.0
4.6899	482.875896884	17.0
4.7002	483.161353314	6.0
4.7104	483.443281507	16.0
4.7206	483.724458592	12.0
4.7309	484.00763216	18.0
4.7411	484.287305709	13.0
4.7514	484.568965066	13.0
4.7616	484.84714312	9.0
4.7718	485.124580055	8.0
4.7821	485.403986918	14.0
4.7923	485.679940317	11.0
4.8026	485.95785311	9.0
4.8128	486.232330907	10.0
4.823	486.506077443	11.0
4.8333	486.781767704	11.0
4.8435	487.054050438	15.0
4.8538	487.328266503	13.0
4.864	487.599093263	11.0
4.8742	487.869198489	5.0
4.8845	488.141221585	14.0
4.8947	488.409882481	16.0
4.905	488.68045099	12.0
4.9152	488.947675278	10.0
4.9254	489.214187631	8.0
4.9357	489.482592341	9.0
4.9459	489.747679575	16.0
4.9562	490.014649048	9.0
4.9664	490.278318783	7.0
4.9766	490.541286053	8.0
4.9869	490.80612051	17.0
4.9971	491.067681618	15.0
5.0074	491.331099928	11.0
5.0176	491.591262392	8.0
5.0278	491.850731736	4.0
5.0381	492.112043429	16.0
5.0483	492.370125314	14.0
5.0586	492.630039698	12.0
5.0688	492.886741545	13.0
5.079	493.14275949	13.0
5.0893	493.400595279	11.0
5.0995	493.655244222	7.0
5.1098	493.911701287	13.0
5.12	494.164988549	9.0
5.1302	494.417601006	11.0
5.1405	494.672007125	6.0
5.1507	494.92326879	14.0
5.161	495.176314526	7.0
5.1712	495.426232622	10.0
5.1814	495.675484889	14.0
5.1917	495.92650696	12.0
5.2019	496.174426404	14.0
5.2122	496.424106187	13.0
5.2224	496.670699933	18.0
5.2326	496.916636707	13.0
5.2429	497.164319744	20.0
5.2531	497.408941423	14.0
5.2634	497.655300026	16.0
5.2736	497.898613643	11.0
5.2838	498.141279026	11.0
5.2941	498.385667443	17.0
5.3043	498.627035224	15.0
5.3146	498.870116825	14.0
5.3248	499.110193943	11.0
5.335	499.34963145	12.0
5.3453	499.590769072	12.0
5.3555	499.828926237	10.0
5.3658	500.068774426	10.0
5.376	500.305658096	14.0
5.3862	500.541910664	9.0
5.3965	500.779840732	9.0
5.4067	501.014829989	8.0
5.417	501.251487775	13.0
5.4272	501.485220476	12.0
5.4374	501.71833047	15.0
5.4477	501.95309565	7.0
5.4579	502.184959137	11.0
5.4682	502.418468959	12.0
5.4784	502.649092605	10.0
5.4886	502.879101826	8.0
5.4989	503.110744216	11.0
5.5091	503.339523511	10.0
5.5194	503.569927243	8.0
5.5296	503.797483189	10.0
5.5398	504.024432883	17.0
5.5501	504.252994023	7.0
5.5603	504.478730152	10.0
5.5706	504.706069109	17.0
5.5808	504.930598161	9.0
5.591	505.154529025	10.0
5.6013	505.380049901	8.0
5.6115	505.602783342	7.0
5.6218	505.827098292	9.0
5.632	506.048640713	13.0
5.6422	506.269592904	5.0
5.6525	506.492113955	13.0
5.6627	506.71188465	9.0
5.673	506.933215817	9.0
5.6832	507.151811335	16.0
5.6934	507.369824473	11.0
5.7037	507.589385604	12.0
5.7139	507.806232963	10.0
5.7242	508.024620036	8.0
5.7344	508.24030785	7.0
5.7446	508.45542103	14.0
5.7549	508.672061612	10.0
5.7651	508.88602452	9.0
5.7754	509.101506662	8.0
5.7856	509.314325448	8.0
5.7958	509.526577246	3.0
5.8061	509.740336127	11.0
5.8163	509.951452953	9.0
5.8266	510.164068803	7.0
5.8368	510.374056726	9.0
5.847	510.583485202	7.0
5.8573	510.794400715	4.0
5.8675	511.002709316	8.0
5.8778	511.212497002	7.0
5.888	511.419691716	3.0
5.8982	511.626334426	11.0
5.9085	511.834444391	4.0
5.9187	512.039982122	7.0
5.929	512.246979263	3.0
5.9392	512.451417924	10.0
5.9494	512.655311922	6.0
5.9597	512.86065366	7.0
5.9699	513.063457378	1.0
5.9802	513.267701093	4.0
5.9904	513.469420361	2.0
6.0006	513.670602211	4.0
6.0109	513.873212542	6.0
6.0211	514.073318614	8.0
6.0314	514.27484553	3.0
6.0416	514.473881577	3.0
6.0518	514.672387355	5.0
6.0621	514.872302613	3.0
6.0723	515.069746923	5.0
6.0826	515.268593176	5.0
6.0928	515.464981694	7.0
6.103	515.660846996	7.0
6.1133	515.85810303	2.0
6.1235	516.052920984	2.0
6.1338	516.249122233	5.0
6.144	516.442898438	7.0
6.1542	516.636158388	5.0
6.1645	516.83079057	2.0
6.1747	517.023017103	2.0
6.185	517.21660853	5.0
6.1952	517.407807172	0.0
6.2054	517.598496424	4.0
6.2157	517.790539657	2.0
6.2259	517.980209239	4.0
6.2362	518.17122556	7.0
6.2464	518.359880924	5.0
6.2566	518.548033675	3.0
6.2669	518.737522395	4.0
6.2771	518.924669038	5.0
6.2874	519.113144507	2.0
6.2976	519.299290423	1.0
6.3078	519.484940411	3.0
6.3181	519.671908599	3.0
6.3283	519.856565863	2.0
6.3386	520.042534277	1.0
6.3488	520.226204125	0.0
6.359	520.409384642	0.0
6.3693	520.593865824	4.0
6.3795	520.776066822	2.0
6.3898	520.95956153	0.0
6.4	521.140788246	1.0
6.4102	521.321532141	2.0
6.4205	521.503559399	5.0
6.4307	521.683336804	2.0
6.441	521.864390709	0.0
6.4512	522.043206792	1.0
6.4614	522.221546476	0.0
6.4717	522.401152451	1.0
6.4819	522.578538501	0.0
6.4922	522.757184071	1.0
6.5024	522.933621586	0.0
6.5126	523.109589039	1.0
6.5229	523.286805939	0.0
6.5331	523.461832443	1.0
6.5434	523.638101713	3.0
6.5536	523.812192299	1.0
6.5638	523.985819075	3.0
6.5741	524.16067868	0.0
6.5843	524.333377023	1.0
6.5946	524.507301603	2.0
6.6048	524.679076478	0.0
6.615	524.850393713	0.0
6.6253	525.022927377	1.0
6.6355	525.193328529	1.0
6.6458	525.364939607	1.0
6.656	525.534429574	0.0
6.6662	525.703467989	0.0
6.6765	525.873706653	0.0
6.6867	526.04184117	2.0
6.697	526.211169518	1.0
6.7072	526.378404972	0.0
6.7174	526.545194879	0.0
6.7277	526.713169069	1.0
6.7379	526.879067102	2.0
6.7482	527.046143086	2.0
6.7584	527.211154014	0.0
6.7686	527.375725322	0.0
6.7789	527.54146516	0.0
6.7891	527.705156458	3.0
6.7994	527.870010038	2.0
6.8096	528.03282603	1.0
6.8198	528.195208251	0.0
6.8301	528.358743459	0.0
6.8403	528.520257374	3.0
6.8506	528.682918112	1.0
6.8608	528.843568366	0.0
6.871	529.003790618	2.0
6.8813	529.16515052	0.0
6.8915	529.324516017	0.0
6.9018	529.48501308	2.0
6.912	529.643526404	2.0
6.9222	529.801617418	0.0
6.9325	529.96083095	2.0
6.9427	530.118076606	2.0
6.953	530.276438777	1.0
6.9632	530.432843595	2.0
6.9734	530.588831721	0.0
6.9837	530.745927433	1.0
6.9939	530.901081445	4.0
7.0042	531.057337121	0.0
7.0144	531.21166148	2.0
7.0246	531.36557469	0.0
7.0349	531.520580753	0.0
7.0451	531.673670945	0.0
7.0554	531.827848146	3.0
7.0656	531.980119719	1.0
7.0758	532.131985613	0.0
7.0861	532.284929824	0.0
7.0963	532.435983647	0.0
7.1066	532.58811002	2.0
7.1168	532.738356114	0.0
7.127	532.888201925	1.0
7.1373	533.039111708	0.0
7.1475	533.18815625	2.0
7.1578	533.338259075	1.0
7.168	533.486506633	0.0
7.1782	533.634359231	2.0
7.1885	533.783261649	0.0
7.1987	533.930323637	1.0
7.209	534.078429831	3.0
7.2192	534.224705435	0.0
7.2294	534.370591334	0.0
7.2397	534.517513089	0.0
7.2499	534.662618893	0.0
7.2602	534.808755015	0.0
7.2704	534.953084897	1.0
7.2806	535.097030257	1.0
7.2909	535.241997694	0.0
7.3011	535.385173336	1.0
7.3114	535.529365591	0.0
7.3216	535.671775631	0.0
7.3318	535.813806265	2.0
7.3421	535.956845381	1.0
7.3523	536.098116536	2.0
7.3626	536.24039078	1.0
7.3728	536.380906517	1.0
7.383	536.521047894	0.0
7.3933	536.662184338	2.0
7.4035	536.801576339	1.0
7.4138	536.941958085	1.0
7.424	537.080604716	0.0
7.4342	537.218881967	0.0
7.4445	537.358141048	2.0
7.4547	537.49567889	0.0
7.465	537.634193313	0.0
7.4752	537.7709957	0.0
7.4854	537.90743362	0.0
7.4957	538.044840311	0.0
7.5059	538.180548658	0.0
7.5162	538.317220595	0.0
7.5264	538.452203271	0.0
7.5366	538.586826327	0.0
7.5469	538.722405267	0.0
7.5571	538.856308455	0.0
7.5674	538.991162415	1.0
7.5776	539.124349584	2.0
7.5878	539.257181917	2.0
7.5981	539.390957419	1.0
7.6083	539.523079459	1.0
7.6186	539.656139625	2.0
7.6288	539.78755517	1.0
7.639	539.9186206	0.0
7.6493	540.050616653	0.0
7.6595	540.180981238	1.0
7.6698	540.31227147	3.0
7.68	540.441938957	2.0
7.6902	540.571260987	1.0
7.7005	540.70150126	0.0
7.7107	540.830131767	2.0
7.721	540.959675609	2.0
7.7312	541.087618291	3.0
7.7414	541.21522011	1.0
7.7517	541.343727959	0.0
7.7619	541.470647454	0.0
7.7722	541.598468135	2.0
7.7824	541.724708954	0.0
7.7926	541.850613445	2.0
7.8029	541.977411914	2.0
7.8131	542.102643157	2.0
7.8234	542.228763598	2.0
7.8336	542.353325193	0.0
7.8438	542.477554932	2.0
7.8541	542.602666759	1.0
7.8643	542.726232206	1.0
7.8746	542.850675024	1.0
7.8848	542.973579731	0.0
7.895	543.096156997	0.0
7.9053	543.219604617	0.0
7.9155	543.341526426	1.0
7.9258	543.464313936	1.0
7.936	543.585583794	0.0
7.9462	543.706530567	1.0
7.9565	543.828336117	0.0
7.9667	543.948636152	3.0
7.977	544.069790372	1.0
7.9872	544.189447128	1.0
7.9974	544.308785097	0.0
8.0077	544.428970418	0.0
8.0179	544.547670252	0.0
8.0282	544.667212908	3.0
8.0384	544.785278019	2.0
8.0486	544.903028583	1.0
8.0589	545.021615229	1.0
8.0691	545.138736146	0.0
8.0794	545.256688675	1.0
