TL-DOS Lehrstuhlversuch
detector=R1408205
job_number=2015-10-21-014
irradiation_dose [mSv]=5.0

[BEGIN DATA]
time [sec] 	 temperature [K] 	 photoncount 
0.0	191.306312175	0.0
0.0102	192.485611839	0.0
0.0205	193.672643726	2.0
0.0307	194.844370849	0.0
0.041	196.023780544	0.0
0.0512	197.18798375	0.0
0.0614	198.348461367	0.0
0.0717	199.516547798	1.0
0.0819	200.669573734	0.0
0.0922	201.830159625	3.0
0.1024	202.975781729	0.0
0.1126	204.117737706	0.0
0.1229	205.267181057	0.0
0.1331	206.401804284	1.0
0.1434	207.543866807	0.0
0.1536	208.671204369	1.0
0.1638	209.794934318	1.0
0.1741	210.926032139	0.0
0.1843	212.042546371	0.0
0.1946	213.166381166	0.0
0.2048	214.275726015	1.0
0.215	215.381520829	1.0
0.2253	216.494565922	1.0
0.2355	217.593260185	0.0
0.2458	218.699158171	0.0
0.256	219.790797477	0.0
0.2662	220.878943408	0.0
0.2765	221.974223901	1.0
0.2867	223.055382608	0.0
0.297	224.143630065	0.0
0.3072	225.217846415	0.0
0.3174	226.288625145	0.0
0.3277	227.366424567	0.0
0.3379	228.430327592	0.0
0.3482	229.501206227	0.0
0.3584	230.558277698	0.0
0.3686	231.611966414	0.0
0.3789	232.672563769	0.0
0.3891	233.719486519	0.0
0.3994	234.773273546	0.0
0.4096	235.813473775	0.0
0.4198	236.85034524	0.0
0.4301	237.89401508	0.0
0.4403	238.924228566	0.0
0.4506	239.961196773	0.0
0.4608	240.984795032	0.0
0.471	242.005117655	0.0
0.4813	243.032130149	2.0
0.4915	244.045901057	0.0
0.5018	245.066318878	0.0
0.512	246.07358014	0.0
0.5222	247.077618047	0.0
0.5325	248.088239052	0.0
0.5427	249.085829811	0.0
0.553	250.089961396	0.0
0.5632	251.081146407	0.0
0.5734	252.069159507	0.0
0.5837	253.063650637	0.0
0.5939	254.045319489	0.0
0.6042	255.033424772	1.0
0.6144	256.008790113	0.0
0.6246	256.981034169	1.0
0.6349	257.959652862	0.0
0.6451	258.925653926	0.0
0.6554	259.897988694	0.0
0.6656	260.857786853	0.0
0.6758	261.814513544	0.0
0.6861	262.77751313	0.0
0.6963	263.728096469	1.0
0.7066	264.684912424	0.0
0.7168	265.629391859	0.0
0.727	266.570848848	1.0
0.7373	267.518478614	1.0
0.7475	268.453890301	1.0
0.7578	269.395435129	0.0
0.768	270.324840332	1.0
0.7782	271.251271328	0.0
0.7885	272.183776583	0.0
0.7987	273.104258762	0.0
0.809	274.030776196	0.0
0.8192	274.945347758	0.0
0.8294	275.856992582	1.0
0.8397	276.774614717	1.0
0.8499	277.680405669	0.0
0.8602	278.592135551	0.0
0.8704	279.492110222	0.0
0.8806	280.389204866	0.0
0.8909	281.292181422	1.0
0.9011	282.183515625	1.0
0.9114	283.08069397	2.0
0.9216	283.96630472	0.0
0.9318	284.849081411	1.0
0.9421	285.737646136	1.0
0.9523	286.614754324	0.0
0.9626	287.49761338	0.0
0.9728	288.369089464	1.0
0.983	289.237776722	0.0
0.9933	290.112159634	2.0
1.0035	290.97526886	0.0
1.0138	291.844037167	2.0
1.024	292.701604179	0.0
1.0342	293.556426875	0.0
1.0445	294.416854321	2.0
1.0547	295.266188013	1.0
1.065	296.121090466	1.0
1.0752	296.9649704	0.0
1.0854	297.806149818	1.0
1.0957	298.652844533	0.0
1.1059	299.488622553	0.0
1.1162	300.329880455	1.0
1.1264	301.160291762	0.0
1.1366	301.988045654	2.0
1.1469	302.821226815	1.0
1.1571	303.643665518	3.0
1.1674	304.471496641	3.0
1.1776	305.288654284	1.0
1.1878	306.103196926	0.0
1.1981	306.923080217	2.0
1.2083	307.732392502	4.0
1.2186	308.547011142	2.0
1.2288	309.351126655	0.0
1.239	310.152668904	1.0
1.2493	310.959466562	0.0
1.2595	311.755861931	0.0
1.2698	312.557478965	0.0
1.28	313.348760505	2.0
1.2902	314.137509851	0.0
1.3005	314.931430728	4.0
1.3107	315.715115341	0.0
1.321	316.503938278	5.0
1.3312	317.28259068	2.0
1.3414	318.058751302	2.0
1.3517	318.840000916	1.0
1.3619	319.611177641	1.0
1.3722	320.38741068	6.0
1.3824	321.153635509	2.0
1.3926	321.917408328	6.0
1.4029	322.686188918	2.0
1.4131	323.445057384	2.0
1.4234	324.208901464	6.0
1.4336	324.96289707	6.0
1.4438	325.7144798	6.0
1.4541	326.470990374	8.0
1.4643	327.217747027	2.0
1.4746	327.969399881	6.0
1.4848	328.711361445	4.0
1.495	329.450948644	5.0
1.5053	330.195385037	4.0
1.5155	330.930223185	4.0
1.5258	331.669879389	6.0
1.536	332.39999898	8.0
1.5462	333.127782101	7.0
1.5565	333.860337021	7.0
1.5667	334.583446888	7.0
1.577	335.311297912	8.0
1.5872	336.029764531	4.0
1.5974	336.745931972	7.0
1.6077	337.466795053	10.0
1.6179	338.178363825	17.0
1.6282	338.894598085	13.0
1.6384	339.601597719	10.0
1.6486	340.306334869	12.0
1.6589	341.015692716	16.0
1.6691	341.715904594	9.0
1.6794	342.420707498	14.0
1.6896	343.116423163	19.0
1.6998	343.809912455	21.0
1.7101	344.507948695	16.0
1.7203	345.19698494	16.0
1.7306	345.890538936	12.0
1.7408	346.575150728	14.0
1.751	347.257571681	13.0
1.7613	347.944467011	18.0
1.7715	348.62250599	25.0
1.7818	349.304990614	21.0
1.792	349.978675756	16.0
1.8022	350.650205026	30.0
1.8125	351.326137259	29.0
1.8227	351.993354491	37.0
1.833	352.664946416	27.0
1.8432	353.3278793	28.0
1.8534	353.988690721	40.0
1.8637	354.653834832	29.0
1.8739	355.310403038	38.0
1.8842	355.971276113	30.0
1.8944	356.62362835	36.0
1.9046	357.273892982	46.0
1.9149	357.928421154	56.0
1.9251	358.574510295	52.0
1.9354	359.224835598	49.0
1.9456	359.866776059	57.0
1.9558	360.506662234	51.0
1.9661	361.150743901	69.0
1.9763	361.786521226	62.0
1.9866	362.426467103	75.0
1.9968	363.058161963	84.0
2.007	363.687835324	60.0
2.0173	364.321637216	74.0
2.0275	364.947267306	86.0
2.0378	365.576999417	83.0
2.048	366.198612199	82.0
2.0582	366.818235747	97.0
2.0685	367.441921933	98.0
2.0787	368.057566742	107.0
2.089	368.677248101	86.0
2.0992	369.28893972	118.0
2.1094	369.898673853	152.0
2.1197	370.512405782	143.0
2.1299	371.118224678	120.0
2.1402	371.728015701	145.0
2.1504	372.329944501	159.0
2.1606	372.929947058	149.0
2.1709	373.533883604	169.0
2.1811	374.130033413	164.0
2.1914	374.730091951	196.0
2.2016	375.322413751	182.0
2.2118	375.912840051	183.0
2.2221	376.507137553	215.0
2.2323	377.093772596	206.0
2.2426	377.684253984	232.0
2.2528	378.267122115	217.0
2.263	378.848124999	236.0
2.2733	379.432937299	240.0
2.2835	380.010209436	280.0
2.2938	380.591266528	260.0
2.304	381.164831874	327.0
2.3142	381.736561742	282.0
2.3245	382.312040228	319.0
2.3347	382.880098893	346.0
2.345	383.451882105	368.0
2.3552	384.016293142	371.0
2.3654	384.578897996	367.0
2.3757	385.145191637	401.0
2.3859	385.704183882	374.0
2.3962	386.266841228	478.0
2.4064	386.822244061	442.0
2.4166	387.37586954	461.0
2.4269	387.933124931	446.0
2.4371	388.483195458	494.0
2.4474	389.036872591	454.0
2.4576	389.583410995	539.0
2.4678	390.128200411	529.0
2.4781	390.676561806	616.0
2.4883	391.21785301	542.0
2.4986	391.762693256	603.0
2.5088	392.30050871	637.0
2.519	392.836603091	603.0
2.5293	393.376212441	639.0
2.5395	393.908864442	689.0
2.5498	394.445008842	671.0
2.56	394.974240568	708.0
2.5702	395.50177869	675.0
2.5805	396.03277568	746.0
2.5907	396.556926363	758.0
2.601	397.084513705	775.0
2.6112	397.605298703	763.0
2.6214	398.124417126	852.0
2.6317	398.646939213	828.0
2.6419	399.162724264	851.0
2.6522	399.681891122	829.0
2.6624	400.194364203	866.0
2.6726	400.70519731	848.0
2.6829	401.219379756	901.0
2.6931	401.726932691	881.0
2.7034	402.23781346	912.0
2.7136	402.742107286	913.0
2.7238	403.244787312	891.0
2.7341	403.750763222	838.0
2.7443	404.25021543	919.0
2.7546	404.752942357	882.0
2.7648	405.249187473	901.0
2.775	405.743844545	880.0
2.7853	406.241744897	882.0
2.7955	406.733225667	847.0
2.8058	407.227928892	823.0
2.816	407.716253757	856.0
2.8262	408.203015924	827.0
2.8365	408.692969607	776.0
2.8467	409.176606168	809.0
2.857	409.663413751	806.0
2.8672	410.143944775	905.0
2.8774	410.622938043	785.0
2.8877	411.105071889	769.0
2.8979	411.580989437	696.0
2.9082	412.060027395	765.0
2.9184	412.532888972	771.0
2.9286	413.004237335	695.0
2.9389	413.478676151	663.0
2.9491	413.946997883	632.0
2.9594	414.418390223	623.0
2.9696	414.883704759	655.0
2.9798	415.347530232	620.0
2.9901	415.814396834	585.0
3.0003	416.275243982	543.0
3.0106	416.739112732	557.0
3.0208	417.197000679	535.0
3.031	417.653423331	548.0
3.0413	418.112838574	510.0
3.0515	418.566330437	505.0
3.0618	419.022795674	498.0
3.072	419.473375565	453.0
3.0822	419.922513547	476.0
3.0925	420.374596357	447.0
3.1027	420.820850326	433.0
3.113	421.270030214	431.0
3.1232	421.713418688	435.0
3.1334	422.155388266	476.0
3.1437	422.600255672	423.0
3.1539	423.039387267	434.0
3.1642	423.481398082	425.0
3.1744	423.917709916	439.0
3.1846	424.352625501	447.0
3.1949	424.790392663	461.0
3.2051	425.22251556	439.0
3.2154	425.657471723	493.0
3.2256	426.086819864	461.0
3.2358	426.514794039	489.0
3.2461	426.94557428	497.0
3.2563	427.370800339	483.0
3.2666	427.798814446	479.0
3.2768	428.221310035	499.0
3.287	428.642453589	528.0
3.2973	429.066358422	528.0
3.3075	429.48479772	549.0
3.3178	429.905980568	570.0
3.328	430.321732976	587.0
3.3382	430.736154927	605.0
3.3485	431.153294086	605.0
3.3587	431.565054943	615.0
3.369	431.97951556	608.0
3.3792	432.38863241	640.0
3.3894	432.796440037	654.0
3.3997	433.206921506	655.0
3.4099	433.612110511	642.0
3.4202	434.019956187	678.0
3.4304	434.422543385	673.0
3.4406	434.823842256	700.0
3.4509	435.227772292	739.0
3.4611	435.626494335	700.0
3.4714	436.027830648	756.0
3.4816	436.423992409	730.0
3.4918	436.818886406	771.0
3.5021	437.216369573	768.0
3.5123	437.608727869	777.0
3.5226	438.00365871	792.0
3.5328	438.393497587	843.0
3.543	438.782088933	771.0
3.5533	439.173228126	781.0
3.5635	439.559324242	838.0
3.5738	439.947951845	839.0
3.584	440.331568753	849.0
3.5942	440.713958041	867.0
3.6045	441.098854512	853.0
3.6147	441.478788395	795.0
3.625	441.861213361	852.0
3.6352	442.238707605	810.0
3.6454	442.614993823	864.0
3.6557	442.993747208	864.0
3.6659	443.367617209	829.0
3.6762	443.743938535	896.0
3.6864	444.115407835	884.0
3.6966	444.48568839	854.0
3.7069	444.858396734	861.0
3.7171	445.226299636	904.0
3.7274	445.596614738	791.0
3.7376	445.962155254	829.0
3.7478	446.326525998	820.0
3.7581	446.693285783	802.0
3.7683	447.055316822	866.0
3.7786	447.419721562	815.0
3.7888	447.77942792	849.0
3.799	448.137983175	805.0
3.8093	448.498889342	896.0
3.8195	448.855142235	823.0
3.8298	449.213730944	873.0
3.84	449.56769626	817.0
3.8502	449.920528844	849.0
3.8605	450.275674818	769.0
3.8707	450.626241787	757.0
3.881	450.979107292	768.0
3.8912	451.327423193	764.0
3.9014	451.674624442	760.0
3.9117	452.024102159	777.0
3.9219	452.369073953	788.0
3.9322	452.716307597	776.0
3.9424	453.059064251	759.0
3.9526	453.400724044	720.0
3.9629	453.74462397	752.0
3.9731	454.08408989	717.0
3.9834	454.42578156	720.0
3.9936	454.763067695	731.0
4.0038	455.099274474	737.0
4.0141	455.437685634	701.0
4.0243	455.771733556	712.0
4.0346	456.107971704	712.0
4.0448	456.43987463	705.0
4.055	456.770715428	713.0
4.0653	457.103725425	676.0
4.0755	457.432441821	688.0
4.0858	457.763313487	678.0
4.096	458.089919124	667.0
4.1062	458.415479583	675.0
4.1165	458.74317462	690.0
4.1267	459.066644585	672.0
4.137	459.39223542	649.0
4.1472	459.713628313	670.0
4.1574	460.033992711	704.0
4.1677	460.356457617	645.0
4.1779	460.674764884	657.0
4.1882	460.995159172	662.0
4.1984	461.311422519	621.0
4.2086	461.626673786	661.0
4.2189	461.943992036	659.0
4.2291	462.257219005	688.0
4.2394	462.572499685	678.0
4.2496	462.883715355	600.0
4.2598	463.193935098	645.0
4.2701	463.506188834	654.0
4.2803	463.814416588	677.0
4.2906	464.124665275	685.0
4.3008	464.430913831	668.0
4.311	464.736182355	668.0
4.3213	465.04345241	740.0
4.3315	465.346760737	662.0
4.3418	465.652057744	659.0
4.352	465.953418462	695.0
4.3622	466.253814791	689.0
4.3725	466.556180705	650.0
4.3827	466.854648123	696.0
4.393	467.155072479	652.0
4.4032	467.451623372	655.0
4.4134	467.747225267	655.0
4.4237	468.044765312	644.0
4.4339	468.338469083	669.0
4.4442	468.634098558	652.0
4.4544	468.925916392	669.0
4.4646	469.216800375	646.0
4.4749	469.509591573	679.0
4.4851	469.798607726	709.0
4.4954	470.089518848	635.0
4.5056	470.376679165	666.0
4.5158	470.662920534	685.0
4.5261	470.95103868	664.0
4.5363	471.235442031	698.0
4.5466	471.521710107	668.0
4.5568	471.804287242	670.0
4.567	472.085960096	652.0
4.5773	472.369479773	630.0
4.5875	472.649343944	681.0
4.5978	472.931043078	663.0
4.608	473.20911018	646.0
4.6182	473.486287434	649.0
4.6285	473.765282035	645.0
4.6387	474.040679473	658.0
4.649	474.317882588	705.0
4.6592	474.591511638	672.0
4.6694	474.864265044	623.0
4.6797	475.13880679	635.0
4.6899	475.409808786	689.0
4.7002	475.682587639	716.0
4.7104	475.951849472	655.0
4.7206	476.220249635	682.0
4.7309	476.490409596	661.0
4.7411	476.757086302	619.0
4.7514	477.025511507	609.0
4.7616	477.290475824	637.0
4.7718	477.554592224	599.0
4.7821	477.820440335	630.0
4.7923	478.082860785	612.0
4.8026	478.347001827	571.0
4.8128	478.607737218	626.0
4.823	478.867638225	602.0
4.8333	479.129243304	600.0
4.8435	479.38747543	626.0
4.8538	479.647400686	610.0
4.864	479.903974646	602.0
4.8742	480.159727539	576.0
4.8845	480.417157307	615.0
4.8947	480.671267955	617.0
4.905	480.92704471	604.0
4.9152	481.179523658	608.0
4.9254	481.431194643	550.0
4.9357	481.684515739	614.0
4.9459	481.93457069	574.0
4.9562	482.186265156	591.0
4.9664	482.434714449	593.0
4.9766	482.682368674	610.0
4.9869	482.931646675	624.0
4.9971	483.177710658	606.0
5.0074	483.42538799	549.0
5.0176	483.669871942	553.0
5.0278	483.913573517	620.0
5.0381	484.158872951	575.0
5.0483	484.401009665	558.0
5.0586	484.644733978	544.0
5.0688	484.885315878	568.0
5.079	485.125127888	565.0
5.0893	485.366512255	549.0
5.0995	485.60478438	598.0
5.1098	485.844618764	545.0
5.12	486.081360891	525.0
5.1302	486.317345415	575.0
5.1405	486.554877201	563.0
5.1507	486.789346416	522.0
5.161	487.025352958	527.0
5.1712	487.258316596	534.0
5.1814	487.490534722	507.0
5.1917	487.724275414	521.0
5.2019	487.955002417	544.0
5.2122	488.187242209	521.0
5.2224	488.416487663	508.0
5.2326	488.644999504	505.0
5.2429	488.875009611	567.0
5.2531	489.102054128	514.0
5.2634	489.33058729	545.0
5.2736	489.556173904	522.0
5.2838	489.781038614	531.0
5.2941	490.007377677	504.0
5.3043	490.230798481	563.0
5.3146	490.455684171	462.0
5.3248	490.677670342	511.0
5.335	490.89894613	509.0
5.3453	491.12167274	565.0
5.3555	491.341527668	526.0
5.3658	491.562824101	534.0
5.376	491.781267293	507.0
5.3862	491.99901144	513.0
5.3965	492.218183253	498.0
5.4067	492.434529217	502.0
5.417	492.65229368	518.0
5.4272	492.867250439	536.0
5.4374	493.081519311	533.0
5.4477	493.297193064	523.0
5.4579	493.510086068	539.0
5.4682	493.724374932	524.0
5.4784	493.935900904	541.0
5.4886	494.146749968	533.0
5.4989	494.358981489	557.0
5.5091	494.568476645	526.0
5.5194	494.779345381	529.0
5.5296	494.987495323	506.0
5.5398	495.194979159	524.0
5.5501	495.403823389	523.0
5.5603	495.609974927	536.0
5.5706	495.817478123	485.0
5.5808	496.022305916	518.0
5.591	496.226478236	546.0
5.6013	496.431989237	519.0
5.6115	496.634850522	549.0
5.6218	496.839041892	539.0
5.632	497.04060056	555.0
5.6422	497.241514216	515.0
5.6525	497.443745187	532.0
5.6627	497.643368733	535.0
5.673	497.844301135	530.0
5.6832	498.042642854	486.0
5.6934	498.240349857	553.0
5.7037	498.439353149	550.0
5.7139	498.635790631	519.0
5.7242	498.83351608	515.0
5.7344	499.028692193	520.0
5.7446	499.223243721	545.0
5.7549	499.419070849	529.0
5.7651	499.612373118	516.0
5.7754	499.806942797	515.0
5.7856	499.99900383	484.0
5.7958	500.190450245	569.0
5.8061	500.383151902	556.0
5.8163	500.573368997	513.0
5.8266	500.764833274	508.0
5.8368	500.953828944	530.0
5.847	501.142219805	496.0
5.8573	501.331845874	531.0
5.8675	501.519027036	498.0
5.8778	501.707435475	499.0
5.888	501.893414705	547.0
5.8982	502.078798781	484.0
5.9085	502.265398349	483.0
5.9187	502.449592033	517.0
5.929	502.634993404	527.0
5.9392	502.81800434	472.0
5.9494	503.000429618	510.0
5.9597	503.184050991	493.0
5.9699	503.365304877	484.0
5.9802	503.547747176	486.0
5.9904	503.727837191	471.0
6.0006	503.907350896	461.0
6.0109	504.088041606	498.0
6.0211	504.266402614	462.0
6.0314	504.445933069	488.0
6.0416	504.623148782	439.0
6.0518	504.799797384	468.0
6.0621	504.977604205	473.0
6.0723	505.153118508	443.0
6.0826	505.329783591	446.0
6.0928	505.504170878	418.0
6.103	505.678000105	452.0
6.1133	505.852969065	452.0
6.1235	506.025682096	399.0
6.1338	506.199527542	435.0
6.144	506.371131545	430.0
6.1542	506.542186394	406.0
6.1645	506.714362786	402.0
6.1747	506.884319256	398.0
6.185	507.055390065	385.0
6.1952	507.224255207	405.0
6.2054	507.39257996	420.0
6.2157	507.562008354	404.0
6.2259	507.729252257	408.0
6.2362	507.897592715	370.0
6.2464	508.063762708	366.0
6.2566	508.229400937	387.0
6.2669	508.396125194	370.0
6.2771	508.560699824	370.0
6.2874	508.726353507	345.0
6.2976	508.889871368	344.0
6.3078	509.052865951	340.0
6.3181	509.216929229	328.0
6.3283	509.378877188	364.0
6.3386	509.541886979	333.0
6.3488	509.702795036	327.0
6.359	509.863188167	291.0
6.3693	510.024632935	308.0
6.3795	510.183996147	314.0
6.3898	510.344404243	277.0
6.4	510.502744149	313.0
6.4102	510.660577348	296.0
6.4205	510.8194454	309.0
6.4307	510.976265118	297.0
6.441	511.134113043	283.0
6.4512	511.289925787	290.0
6.4614	511.445239912	239.0
6.4717	511.601572372	262.0
6.4819	511.755889191	263.0
6.4922	511.911217806	256.0
6.5024	512.064543723	252.0
6.5126	512.217378978	231.0
6.5229	512.371216316	217.0
6.5331	512.523070183	232.0
6.5434	512.675919698	236.0
6.5536	512.826798477	206.0
6.5638	512.977194427	214.0
6.5741	513.128576466	223.0
6.5843	513.27800669	203.0
6.5946	513.428416672	186.0
6.6048	513.576887372	204.0
6.615	513.724882948	195.0
6.6253	513.873848875	187.0
6.6355	514.020894139	190.0
6.6458	514.168903523	176.0
6.656	514.315004577	174.0
6.6662	514.460638091	176.0
6.6765	514.607226468	164.0
6.6867	514.751924837	155.0
6.697	514.897571938	166.0
6.7072	515.041341167	169.0
6.7174	515.184650317	160.0
6.7277	515.328899091	156.0
6.7379	515.471288022	137.0
6.7482	515.614610543	138.0
6.7584	515.756085163	127.0
6.7686	515.897107047	143.0
6.7789	516.039053559	129.0
6.7891	516.179169911	149.0
6.7994	516.320204953	115.0
6.8096	516.459421587	133.0
6.8198	516.598192712	115.0
6.8301	516.737873706	107.0
6.8403	516.875753751	112.0
6.8506	517.014537823	114.0
6.8608	517.151532509	118.0
6.871	517.288088797	108.0
6.8813	517.425540432	103.0
6.8915	517.561219862	97.0
6.9018	517.69778889	90.0
6.912	517.832597092	96.0
6.9222	517.966973892	74.0
6.9325	518.10223175	96.0
6.9427	518.235745687	82.0
6.953	518.370135024	89.0
6.9632	518.502791639	81.0
6.9734	518.635023737	79.0
6.9837	518.76812283	78.0
6.9939	518.899505837	81.0
7.0042	519.031750272	80.0
7.0144	519.16228964	57.0
7.0246	519.292411265	63.0
7.0349	519.42338605	72.0
7.0451	519.552672136	60.0
7.0554	519.682805903	55.0
7.0656	519.811261815	54.0
7.0758	519.939306653	68.0
7.0861	520.068191032	44.0
7.0963	520.195413666	59.0
7.1066	520.323470451	51.0
7.1168	520.44987616	56.0
7.127	520.575877357	54.0
7.1373	520.702704695	49.0
7.1475	520.82789681	42.0
7.1578	520.953909762	48.0
7.168	521.078297991	55.0
7.1782	521.202288163	58.0
7.1885	521.327091292	42.0
7.1987	521.450285295	49.0
7.209	521.574287036	48.0
7.2192	521.696689984	40.0
7.2294	521.818701228	42.0
7.2397	521.941512453	41.0
7.2499	522.062740236	43.0
7.2602	522.184762864	36.0
7.2704	522.305212217	31.0
7.2806	522.425276118	28.0
7.2909	522.546127232	38.0
7.3011	522.665420176	29.0
7.3114	522.785495279	30.0
7.3216	522.904022217	26.0
7.3318	523.022169855	32.0
7.3421	523.141092142	32.0
7.3523	523.258481127	30.0
7.3626	523.376639788	30.0
7.3728	523.493274994	25.0
7.383	523.609536952	25.0
7.3933	523.726561197	25.0
7.4035	523.842076612	31.0
7.4138	523.958349418	21.0
7.424	524.073123084	18.0
7.4342	524.18752946	22.0
7.4445	524.302685955	21.0
7.4547	524.416357703	21.0
7.465	524.530774753	20.0
7.4752	524.64371659	19.0
7.4854	524.756296999	19.0
7.4957	524.869615555	16.0
7.5059	524.981473061	19.0
7.5162	525.094063974	14.0
7.5264	525.205203218	19.0
7.5366	525.315986803	9.0
7.5469	525.427496755	13.0
7.5571	525.537568974	15.0
7.5674	525.648362896	18.0
7.5776	525.757728317	21.0
7.5878	525.866743757	10.0
7.5981	525.976473969	16.0
7.6083	526.084789397	21.0
7.6186	526.193815007	15.0
7.6288	526.301434918	14.0
7.639	526.408710431	10.0
7.6493	526.51668931	13.0
7.6595	526.623275984	11.0
7.6698	526.730561507	17.0
7.68	526.836463765	18.0
7.6902	526.942027123	9.0
7.7005	527.04828262	16.0
7.7107	527.153168132	19.0
7.721	527.258741339	6.0
7.7312	527.362953359	13.0
7.7414	527.466831888	15.0
7.7517	527.571391509	11.0
