TL-DOS Lehrstuhlversuch
detector=R1408105
job_number=2015-11-02-009
irradiation_dose [mSv]=0.3

[BEGIN DATA]
time [sec] 	 temperature [K] 	 photoncount 
0.0	178.252872642	0.0
0.0102	179.821874539	2.0
0.0205	181.399528664	1.0
0.0307	182.955229219	2.0
0.041	184.519508653	1.0
0.0512	186.06202063	1.0
0.0614	187.598012201	1.0
0.0717	189.142473965	0.0
0.0819	190.665444042	1.0
0.0922	192.196812506	0.0
0.1024	193.706871481	2.0
0.1126	195.210547232	0.0
0.1229	196.722514971	0.0
0.1331	198.213443188	0.0
0.1434	199.712593098	1.0
0.1536	201.19088185	3.0
0.1638	202.662921676	0.0
0.1741	204.143079034	1.0
0.1843	205.602639522	0.0
0.1946	207.070248726	2.0
0.2048	208.517435672	1.0
0.215	209.958505163	2.0
0.2253	211.4075214	2.0
0.2355	212.836374107	2.0
0.2458	214.273106191	1.0
0.256	215.689845683	2.0
0.2662	217.100596426	0.0
0.2765	218.519126723	0.0
0.2867	219.917917711	2.0
0.297	221.324422302	0.0
0.3072	222.711354926	1.0
0.3174	224.092424798	0.0
0.3277	225.48111055	0.0
0.3379	226.850472289	0.0
0.3482	228.227385345	0.0
0.3584	229.585138209	0.0
0.3686	230.937151668	0.0
0.3789	232.296620777	0.0
0.3891	233.637172432	0.0
0.3994	234.98511653	0.0
0.4096	236.31430355	0.0
0.4198	237.637871916	1.0
0.4301	238.968739071	0.0
0.4403	240.281086778	2.0
0.4506	241.600671399	1.0
0.4608	242.901893572	1.0
0.471	244.197615303	0.0
0.4813	245.500482264	0.0
0.4915	246.785219408	0.0
0.5018	248.077041208	0.0
0.512	249.350886889	0.0
0.5222	250.619347852	0.0
0.5325	251.894803715	0.0
0.5427	253.152511197	0.0
0.553	254.41715428	1.0
0.5632	255.664199444	0.0
0.5734	256.90597318	0.0
0.5837	258.15459465	0.0
0.5939	259.385841148	1.0
0.6042	260.623877328	0.0
0.6144	261.844685834	0.0
0.6246	263.060333817	1.0
0.6349	264.282685464	0.0
0.6451	265.488027692	0.0
0.6554	266.700016754	0.0
0.6656	267.895140596	0.0
0.6758	269.085212487	0.0
0.6861	270.281847004	0.0
0.6963	271.461829964	0.0
0.7066	272.648319914	0.0
0.7168	273.818299473	2.0
0.727	274.983333369	0.0
0.7373	276.15479182	0.0
0.7475	277.309949047	0.0
0.7578	278.471476364	0.0
0.768	279.616840651	1.0
0.7782	280.757363329	0.0
0.7885	281.904175394	0.0
0.7987	283.035029198	2.0
0.809	284.172119071	0.0
0.8192	285.29338597	1.0
0.8294	286.409913122	1.0
0.8397	287.532597339	1.0
0.8499	288.639659041	0.0
0.8602	289.752825611	0.0
0.8704	290.850502108	1.0
0.8806	291.943538577	2.0
0.8909	293.042602573	0.0
0.9011	294.126372737	1.0
0.9114	295.216119328	0.0
0.9216	296.290701742	1.0
0.9318	297.360741751	1.0
0.9421	298.436682472	1.0
0.9523	299.49765113	2.0
0.9626	300.564470477	0.0
0.9728	301.616444686	0.0
0.983	302.663972059	2.0
0.9933	303.717275998	0.0
1.0035	304.755922872	0.0
1.0138	305.800297341	2.0
1.024	306.830139002	0.0
1.0342	307.855627382	0.0
1.0445	308.886770796	1.0
1.0547	309.903565515	0.0
1.065	310.925967327	1.0
1.0752	311.934142087	1.0
1.0854	312.938055155	0.0
1.0957	313.94750428	0.0
1.1059	314.942906593	0.0
1.1162	315.943798031	0.0
1.1264	316.930761741	0.0
1.1366	317.913553421	1.0
1.1469	318.901764685	1.0
1.1571	319.876224669	1.0
1.1674	320.856058291	1.0
1.1776	321.822257211	0.0
1.1878	322.784371878	1.0
1.1981	323.751792105	1.0
1.2083	324.705750366	2.0
1.2186	325.66496921	4.0
1.2288	326.610840212	3.0
1.239	327.55271289	1.0
1.2493	328.499779504	1.0
1.2595	329.433667379	4.0
1.2698	330.372705159	4.0
1.28	331.298675924	3.0
1.2902	332.220732486	3.0
1.3005	333.147873708	1.0
1.3107	334.06211346	3.0
1.321	334.981394767	2.0
1.3312	335.887883977	1.0
1.3414	336.790541334	7.0
1.3517	337.698176376	4.0
1.3619	338.593181383	2.0
1.3722	339.493121875	3.0
1.3824	340.380539403	4.0
1.3926	341.264205698	4.0
1.4029	342.152744951	4.0
1.4131	343.028919893	6.0
1.4234	343.909926482	2.0
1.4336	344.77867358	2.0
1.4438	345.643748365	1.0
1.4541	346.513593587	6.0
1.4643	347.371334631	4.0
1.4746	348.23380567	3.0
1.4848	349.084275144	2.0
1.495	349.931149569	5.0
1.5053	350.782694065	4.0
1.5155	351.622389043	8.0
1.5258	352.466714501	6.0
1.536	353.299290896	8.0
1.5462	354.128347879	8.0
1.5565	354.961976678	4.0
1.5667	355.784005263	5.0
1.577	356.610566906	9.0
1.5872	357.425626677	3.0
1.5974	358.237241079	7.0
1.6077	359.053331112	3.0
1.6179	359.858064987	11.0
1.6282	360.66723655	7.0
1.6384	361.465148228	10.0
1.6486	362.259687026	7.0
1.6589	363.058607291	8.0
1.6691	363.846410321	13.0
1.6794	364.638557675	13.0
1.6896	365.419682041	8.0
1.6998	366.197504489	11.0
1.7101	366.979616222	14.0
1.7203	367.750844616	14.0
1.7306	368.526325934	16.0
1.7408	369.291016177	14.0
1.751	370.052473971	18.0
1.7613	370.818130808	20.0
1.7715	371.573133282	13.0
1.7818	372.3322992	14.0
1.792	373.080901079	21.0
1.8022	373.826338517	32.0
1.8125	374.575886653	20.0
1.8227	375.315004584	22.0
1.833	376.058198365	18.0
1.8432	376.791050363	23.0
1.8534	377.520804497	18.0
1.8637	378.254582845	22.0
1.8739	378.978150429	25.0
1.8842	379.705708111	30.0
1.8944	380.423141592	32.0
1.9046	381.137542384	29.0
1.9149	381.855882725	33.0
1.9251	382.564227126	38.0
1.9354	383.276477678	31.0
1.9456	383.978817033	27.0
1.9558	384.678187503	32.0
1.9661	385.381414638	34.0
1.9763	386.074856139	41.0
1.9866	386.772121608	35.0
1.9968	387.459684402	38.0
2.007	388.144340775	36.0
2.0173	388.832772671	47.0
2.0275	389.511624814	39.0
2.0378	390.194220473	45.0
2.048	390.867317592	46.0
2.0582	391.537569438	40.0
2.0685	392.211517374	45.0
2.0787	392.876087105	43.0
2.089	393.544321593	46.0
2.0992	394.203257381	63.0
2.1094	394.859407757	53.0
2.1197	395.519176462	49.0
2.1299	396.16976427	56.0
2.1402	396.823939732	69.0
2.1504	397.46901213	57.0
2.1606	398.111357719	54.0
2.1709	398.757245509	56.0
2.1811	399.394145562	59.0
2.1914	400.034557786	68.0
2.2016	400.666058466	70.0
2.2118	401.294889708	63.0
2.2221	401.927188626	64.0
2.2323	402.5506889	56.0
2.2426	403.177627452	73.0
2.2528	403.795841952	54.0
2.263	404.411443175	45.0
2.2733	405.030439117	37.0
2.2835	405.640821531	44.0
2.2938	406.254569885	48.0
2.304	406.859777732	62.0
2.3142	407.462427284	48.0
2.3245	408.068400133	55.0
2.3347	408.665940674	59.0
2.345	409.26677634	49.0
2.3552	409.859251182	54.0
2.3654	410.449221553	46.0
2.3757	411.042445303	46.0
2.3859	411.627414153	48.0
2.3962	412.2156088	38.0
2.4064	412.795618528	48.0
2.4166	413.373176477	61.0
2.4269	413.953919357	42.0
2.4371	414.526581011	37.0
2.4474	415.102400595	42.0
2.4576	415.670207464	28.0
2.4678	416.235614136	49.0
2.4781	416.804138731	35.0
2.4883	417.364752122	36.0
2.4986	417.928457003	48.0
2.5088	418.484317748	39.0
2.519	419.037828795	28.0
2.5293	419.594392167	47.0
2.5395	420.143210778	48.0
2.5498	420.695055839	26.0
2.56	421.239221796	46.0
2.5702	421.78108749	27.0
2.5805	422.325941291	32.0
2.5907	422.863213275	30.0
2.601	423.403448034	28.0
2.6112	423.93616525	28.0
2.6214	424.466630599	27.0
2.6317	425.000021188	39.0
2.6419	425.525989474	39.0
2.6522	426.054858201	40.0
2.6624	426.576367548	37.0
2.6726	427.095672404	33.0
2.6829	427.617840956	32.0
2.6931	428.132743363	37.0
2.7034	428.650485189	35.0
2.7136	429.161022469	34.0
2.7238	429.669401639	34.0
2.7341	430.180584255	27.0
2.7443	430.684653599	46.0
2.7546	431.191502623	40.0
2.7648	431.691298679	39.0
2.775	432.188982029	34.0
2.7853	432.689409843	35.0
2.7955	433.182874041	38.0
2.8058	433.679059438	45.0
2.816	434.168340254	48.0
2.8262	434.655552813	41.0
2.8365	435.145452096	42.0
2.8467	435.628534272	48.0
2.857	436.114280394	45.0
2.8672	436.593267201	43.0
2.8774	437.070229266	41.0
2.8877	437.549821528	51.0
2.8979	438.022740109	61.0
2.9082	438.498266588	45.0
2.9184	438.967175963	54.0
2.9286	439.434103194	55.0
2.9389	439.903605286	45.0
2.9491	440.366574103	56.0
2.9594	440.832095953	54.0
2.9696	441.291139915	62.0
2.9798	441.748243436	51.0
2.9901	442.207867644	63.0
3.0003	442.661096033	48.0
3.0106	443.11682374	56.0
3.0208	443.566209848	50.0
3.031	444.01369634	59.0
3.0413	444.463650487	52.0
3.0515	444.907343376	66.0
3.0618	445.353483	59.0
3.072	445.793414447	56.0
3.0822	446.231486243	54.0
3.0925	446.671973778	55.0
3.1027	447.106331785	48.0
3.113	447.543085051	62.0
3.1232	447.973760753	67.0
3.1334	448.402615931	46.0
3.1437	448.833836021	51.0
3.1539	449.259055544	56.0
3.1642	449.686619931	50.0
3.1744	450.108234621	47.0
3.1846	450.528067089	47.0
3.1949	450.950214713	63.0
3.2051	451.366488017	40.0
3.2154	451.785056851	46.0
3.2256	452.197801164	55.0
3.2358	452.608800751	47.0
3.2461	453.022066786	51.0
3.2563	453.429582091	51.0
3.2666	453.839344629	63.0
3.2768	454.24340519	49.0
3.287	454.645757731	50.0
3.2973	455.050329038	43.0
3.3075	455.449270603	44.0
3.3178	455.850412123	41.0
3.328	456.245971628	51.0
3.3382	456.639859051	40.0
3.3485	457.035918556	36.0
3.3587	457.426466766	41.0
3.369	457.819168645	45.0
3.3792	458.20640595	37.0
3.3894	458.592006351	41.0
3.3997	458.979733137	46.0
3.4099	459.362064579	43.0
3.4202	459.74650438	32.0
3.4304	460.125594576	41.0
3.4406	460.503082306	42.0
3.4509	460.882651685	42.0
3.4611	461.256939232	45.0
3.4714	461.633290781	39.0
3.4816	462.004405275	42.0
3.4918	462.373951018	39.0
3.5021	462.745534614	49.0
3.5123	463.111947503	40.0
3.5226	463.480380968	31.0
3.5328	463.843687562	50.0
3.543	464.20545841	47.0
3.5533	464.569224236	39.0
3.5635	464.927928142	44.0
3.5738	465.288610113	35.0
3.584	465.644273078	48.0
3.5942	465.998432607	39.0
3.6045	466.354545142	29.0
3.6147	466.705702255	39.0
3.625	467.058795816	34.0
3.6352	467.406975966	37.0
3.6454	467.753684311	38.0
3.6557	468.102304572	38.0
3.6659	468.44607367	32.0
3.6762	468.791738474	39.0
3.6864	469.132593241	31.0
3.6966	469.472007168	38.0
3.7069	469.813292787	51.0
3.7171	470.149829305	52.0
3.7274	470.488221647	31.0
3.7376	470.821905149	38.0
3.7478	471.154178126	41.0
3.7581	471.488283416	45.0
3.7683	471.817739522	38.0
3.7786	472.149012407	41.0
3.7888	472.475675522	36.0
3.799	472.800957788	25.0
3.8093	473.128033816	46.0
3.8195	473.450558475	44.0
3.8298	473.774861689	44.0
3.84	474.094652119	34.0
3.8502	474.413090752	43.0
3.8605	474.733285408	45.0
3.8707	475.049024451	54.0
3.881	475.36650463	44.0
3.8912	475.67956697	35.0
3.9014	475.991305953	36.0
3.9117	476.304764014	34.0
3.9219	476.613860204	38.0
3.9322	476.924660899	34.0
3.9424	477.231136701	45.0
3.9526	477.536316989	39.0
3.9629	477.843180187	37.0
3.9731	478.145773283	38.0
3.9834	478.450035024	47.0
3.9936	478.750062863	38.0
4.0038	479.048822444	31.0
4.0141	479.349229528	38.0
4.0243	479.64545635	38.0
4.0346	479.943316709	38.0
4.0448	480.237032245	38.0
4.055	480.529506205	33.0
4.0653	480.823593006	45.0
4.0755	481.113587494	31.0
4.0858	481.405181151	40.0
4.096	481.692717187	32.0
4.1062	481.97903777	34.0
4.1165	482.266937262	50.0
4.1267	482.550830538	32.0
4.137	482.836289338	34.0
4.1472	483.117775887	36.0
4.1574	483.398072553	40.0
4.1677	483.67991491	31.0
4.1779	483.957835338	42.0
4.1882	484.237288353	36.0
4.1984	484.512852689	35.0
4.2086	484.787252177	34.0
4.2189	485.063164835	33.0
4.2291	485.335238079	32.0
4.2394	485.608811665	30.0
4.2496	485.878578386	36.0
4.2598	486.147204767	36.0
4.2701	486.417312482	33.0
4.2803	486.683661561	30.0
4.2906	486.951479415	28.0
4.3008	487.215570498	42.0
4.311	487.478545232	33.0
4.3213	487.742970134	28.0
4.3315	488.003715478	28.0
4.3418	488.265898697	23.0
4.352	488.524433551	33.0
4.3622	488.781875544	33.0
4.3725	489.040737195	30.0
4.3827	489.295996702	35.0
4.393	489.552663832	44.0
4.4032	489.805759356	34.0
4.4134	490.05778501	21.0
4.4237	490.311200455	29.0
4.4339	490.561089542	28.0
4.4442	490.812356637	30.0
4.4544	491.060127269	31.0
4.4646	491.30685054	36.0
4.4749	491.554934362	40.0
4.4851	491.799566017	24.0
4.4954	492.045546688	37.0
4.5056	492.288104459	30.0
4.5158	492.529636905	29.0
4.5261	492.772501276	41.0
4.5363	493.011986111	24.0
4.5466	493.25279158	34.0
4.5568	493.490246163	32.0
4.567	493.726696993	27.0
4.5773	493.964451726	26.0
4.5875	494.198898025	24.0
4.5978	494.434637173	46.0
4.608	494.667095934	27.0
4.6182	494.898572061	30.0
4.6285	495.131324658	32.0
4.6387	495.360838427	27.0
4.649	495.591617845	45.0
4.6592	495.819185892	31.0
4.6694	496.045791979	23.0
4.6797	496.273647679	42.0
4.6899	496.498332694	32.0
4.7002	496.72425673	27.0
4.7104	496.94703696	36.0
4.7206	497.168875467	30.0
4.7309	497.391937298	35.0
4.7411	497.611895151	31.0
4.7514	497.833065957	37.0
4.7616	498.0511591	25.0
4.7718	498.268330333	36.0
4.7821	498.486699153	33.0
4.7923	498.7020293	36.0
4.8026	498.91854688	26.0
4.8128	499.132051548	32.0
4.823	499.344653702	38.0
4.8333	499.558428247	31.0
4.8435	499.76922805	24.0
4.8538	499.981190303	33.0
4.864	500.190203034	29.0
4.8742	500.398332239	35.0
4.8845	500.607609168	28.0
4.8947	500.813973941	28.0
4.905	501.021476708	33.0
4.9152	501.226092006	23.0
4.9254	501.429842369	27.0
4.9357	501.634716308	33.0
4.9459	501.83673936	19.0
4.9562	502.039876463	33.0
4.9664	502.240186848	32.0
4.9766	502.439650494	43.0
4.9869	502.640214078	34.0
4.9971	502.837986755	40.0
5.0074	503.036850044	32.0
5.0176	503.232946087	25.0
5.0278	503.428213205	34.0
5.0381	503.62455712	26.0
5.0483	503.818168845	29.0
5.0586	504.012848238	17.0
5.0688	504.204818604	32.0
5.079	504.395977486	32.0
5.0893	504.588190509	29.0
5.0995	504.777728825	26.0
5.1098	504.968312347	29.0
5.12	505.156243837	19.0
5.1302	505.343380915	37.0
5.1405	505.531549956	35.0
5.1507	505.717100565	27.0
5.161	505.903674388	21.0
5.1712	506.087651976	35.0
5.1814	506.270851865	30.0
5.1917	506.455062007	35.0
5.2019	506.636708805	22.0
5.2122	506.81935729	26.0
5.2224	506.999464163	27.0
5.2326	507.178809699	19.0
5.2429	507.359144232	17.0
5.2531	507.536969352	18.0
5.2634	507.715775085	16.0
5.2736	507.892092677	17.0
5.2838	508.067664952	25.0
5.2941	508.244205416	20.0
5.3043	508.418289263	21.0
5.3146	508.593333091	25.0
5.3248	508.765941127	33.0
5.335	508.937819526	24.0
5.3453	509.110645744	24.0
5.3555	509.28106703	23.0
5.3658	509.4524281	13.0
5.376	509.621404626	19.0
5.3862	509.789666865	17.0
5.3965	509.958856982	11.0
5.4067	510.125692764	18.0
5.417	510.293448558	21.0
5.4272	510.458869976	14.0
5.4374	510.623592136	17.0
5.4477	510.789222652	19.0
5.4579	510.952548366	25.0
5.4682	511.116774736	20.0
5.4784	511.278715843	18.0
5.4886	511.439972403	12.0
5.4989	511.602118208	17.0
5.5091	511.762007702	12.0
5.5194	511.922778904	12.0
5.5296	512.081312922	13.0
5.5398	512.239176795	19.0
5.5501	512.397911206	16.0
5.5603	512.554436775	9.0
5.5706	512.711825501	9.0
5.5808	512.867024113	14.0
5.591	513.021566678	13.0
5.6013	513.176961466	9.0
5.6115	513.330193884	7.0
5.6218	513.4842713	4.0
5.632	513.636204678	9.0
5.6422	513.787495813	13.0
5.6525	513.93962124	11.0
5.6627	514.089629793	7.0
5.673	514.240465564	9.0
5.6832	514.389202407	10.0
5.6934	514.537310519	9.0
5.7037	514.68623537	18.0
5.7139	514.833087883	10.0
5.7242	514.980750212	4.0
5.7344	515.126357771	6.0
5.7446	515.271349827	7.0
5.7549	515.417141439	9.0
5.7651	515.560904314	8.0
5.7754	515.705459965	16.0
5.7856	515.848004078	6.0
5.7958	515.989945638	5.0
5.8061	516.132669931	14.0
5.8163	516.27340817	4.0
5.8266	516.414922507	7.0
5.8368	516.554467625	4.0
5.847	516.693422868	4.0
5.8573	516.833144376	1.0
5.8675	516.970921615	10.0
5.8778	517.109458623	2.0
5.888	517.246067843	3.0
5.8982	517.382099598	3.0
5.9085	517.518881497	8.0
5.9187	517.653760032	3.0
5.929	517.789382351	4.0
5.9392	517.923117442	7.0
5.9494	518.056287216	7.0
5.9597	518.190191353	2.0
5.9699	518.32223217	6.0
5.9802	518.455001123	2.0
5.9904	518.585922553	2.0
6.0006	518.716290561	5.0
6.0109	518.84737748	3.0
6.0211	518.976640282	2.0
6.0314	519.106615901	3.0
6.0416	519.234782867	4.0
6.0518	519.362408054	3.0
6.0621	519.490737028	6.0
6.0723	519.617280262	2.0
6.0826	519.744521316	0.0
6.0928	519.86999177	1.0
6.103	519.994931843	0.0
6.1133	520.120560896	4.0
6.1235	520.244441779	3.0
6.1338	520.369005801	1.0
6.144	520.491836474	5.0
6.1542	520.614147926	5.0
6.1645	520.737133861	2.0
6.1747	520.858408407	1.0
6.185	520.980351719	2.0
6.1952	521.10059815	2.0
6.2054	521.220336283	6.0
6.2157	521.34073471	3.0
6.2259	521.459457753	1.0
6.2362	521.578835493	2.0
6.2464	521.696552052	0.0
6.2566	521.813771007	1.0
6.2669	521.931636364	1.0
6.2771	522.047861586	3.0
6.2874	522.16472773	3.0
6.2976	522.279967644	2.0
6.3078	522.394720422	0.0
6.3181	522.510106003	0.0
6.3283	522.623885955	1.0
6.3386	522.738293345	2.0
6.3488	522.851108719	2.0
6.359	522.963447207	1.0
6.3693	523.076405183	0.0
6.3795	523.187791313	1.0
6.3898	523.299791679	3.0
6.4	523.410233523	1.0
6.4102	523.520208515	2.0
6.4205	523.630789961	2.0
6.4307	523.739832631	0.0
6.441	523.849476615	2.0
6.4512	523.957594866	3.0
6.4614	524.065256088	1.0
6.4717	524.173511004	0.0
6.4819	524.280259519	2.0
6.4922	524.387596696	0.0
6.5024	524.493440241	1.0
6.5126	524.598836371	0.0
6.5229	524.704813706	2.0
6.5331	524.809316332	3.0
6.5434	524.914395236	1.0
6.5536	525.018011932	0.0
6.5638	525.121190627	2.0
6.5741	525.224938299	0.0
6.5843	525.327242288	0.0
6.5946	525.43011043	1.0
6.6048	525.531547128	0.0
6.615	525.63255504	1.0
6.6253	525.734119958	1.0
6.6355	525.834271567	2.0
6.6458	525.93497546	1.0
6.656	526.034278026	2.0
6.6662	526.133160826	0.0
6.6765	526.232588914	0.0
6.6867	526.330633427	1.0
6.697	526.429218605	0.0
6.7072	526.526431938	1.0
6.7174	526.623234337	1.0
6.7277	526.720570551	0.0
6.7379	526.8165523	1.0
6.7482	526.913063338	1.0
6.7584	527.008231394	1.0
6.7686	527.102997161	0.0
6.7789	527.198285513	1.0
6.7891	527.292247896	0.0
6.7994	527.386728432	0.0
6.8096	527.479894242	1.0
6.8198	527.572666226	2.0
6.8301	527.6659498	0.0
6.8403	527.757935303	4.0
6.8506	527.850428058	0.0
6.8608	527.941633746	1.0
6.871	528.032453896	0.0
6.8813	528.123774871	0.0
6.8915	528.213825085	0.0
6.9018	528.304371879	0.0
6.912	528.393658685	0.0
6.9222	528.482568064	0.0
6.9325	528.571967732	0.0
6.9427	528.660123374	0.0
6.953	528.748765149	3.0
6.9632	528.836173444	1.0
6.9734	528.923212253	4.0
6.9837	529.010731036	0.0
6.9939	529.097031966	0.0
7.0042	529.183808801	0.0
7.0144	529.269378109	0.0
7.0246	529.354585703	0.0
7.0349	529.440263172	0.0
7.0451	529.524748412	2.0
7.0554	529.609699544	0.0
7.0656	529.693468554	1.0
7.0758	529.77688346	1.0
7.0861	529.860758356	0.0
7.0963	529.943466106	0.0
7.1066	530.026629946	1.0
7.1168	530.108636534	0.0
7.127	530.190296469	0.0
7.1373	530.272406716	0.0
7.1475	530.353374373	1.0
7.1578	530.434788524	1.0
7.168	530.51506977	0.0
7.1782	530.595011657	0.0
7.1885	530.675394382	2.0
7.1987	530.754658555	0.0
7.209	530.834359828	0.0
7.2192	530.912952033	0.0
7.2294	530.991212017	0.0
7.2397	531.069903565	0.0
7.2499	531.147500094	1.0
7.2602	531.225524528	1.0
7.2704	531.302463226	0.0
7.2806	531.379076694	2.0
7.2909	531.456112646	0.0
7.3011	531.532076617	0.0
7.3114	531.60845949	0.0
7.3216	531.68377947	1.0
7.3318	531.758781063	0.0
7.3421	531.83419625	1.0
7.3523	531.908562011	1.0
7.3626	531.98333786	0.0
7.3728	532.057073179	0.0
7.383	532.130496808	0.0
7.3933	532.204325331	1.0
7.4035	532.277126506	1.0
7.4138	532.350329141	0.0
7.424	532.422513138	0.0
7.4342	532.494392004	1.0
7.4445	532.566667243	1.0
7.4547	532.63793675	1.0
7.465	532.709599271	0.0
7.4752	532.780264584	0.0
7.4854	532.850631186	0.0
7.4957	532.921385822	0.0
7.5059	532.991155885	0.0
7.5162	533.061310694	1.0
7.5264	533.130489276	0.0
7.5366	533.19937543	0.0
7.5469	533.268641456	0.0
7.5571	533.336943622	0.0
7.5674	533.405622439	1.0
7.5776	533.473345569	0.0
7.5878	533.540782423	1.0
7.5981	533.608591157	0.0
7.6083	533.67545631	0.0
7.6186	533.742690189	0.0
7.6288	533.808988487	2.0
7.639	533.875006534	1.0
7.6493	533.941388635	0.0
7.6595	534.006847008	1.0
7.6698	534.07266635	1.0
7.68	534.137569794	1.0
7.6902	534.202198883	0.0
7.7005	534.267184368	0.0
7.7107	534.331265558	2.0
7.721	534.395700123	0.0
7.7312	534.459238059	1.0
7.7414	534.522507413	1.0
7.7517	534.586125664	1.0
7.7619	534.648858646	1.0
7.7722	534.711937568	0.0
7.7824	534.774138726	0.0
7.7926	534.836076952	0.0
7.8029	534.898356734	0.0
7.8131	534.959769874	0.0
7.8234	535.021521674	0.0
7.8336	535.082414179	0.0
7.8438	535.143049282	1.0
7.8541	535.204018757	0.0
7.8643	535.264139821	0.0
7.8746	535.324592422	0.0
7.8848	535.384203806	2.0
7.895	535.443563203	1.0
7.9053	535.503249937	1.0
7.9155	535.562106111	1.0
7.9258	535.621286846	0.0
7.936	535.679644062	1.0
7.9462	535.737754594	2.0
7.9565	535.796185575	0.0
7.9667	535.85380347	0.0
7.977	535.911739098	2.0
7.9872	535.968868533	0.0
7.9974	536.025756474	0.0
8.0077	536.082958122	0.0
8.0179	536.139363791	0.0
8.0282	536.196080507	1.0
8.0384	536.252007993	0.0
