TL-DOS Lehrstuhlversuch
detector=R1407205
job_number=2015-11-03-015
irradiation_dose [mSv]=0.09

[BEGIN DATA]
time [sec] 	 temperature [K] 	 photoncount 
0.0	236.751527655	0.0
0.0102	237.523071729	0.0
0.0205	238.300494235	0.0
0.0307	239.068703196	1.0
0.041	239.842765177	1.0
0.0512	240.60765344	0.0
0.0614	241.370894806	1.0
0.0717	242.139951344	0.0
0.0819	242.899893486	0.0
0.0922	243.665625663	1.0
0.1024	244.422282841	1.0
0.1126	245.177310845	2.0
0.1229	245.938091443	2.0
0.1331	246.689855726	2.0
0.1434	247.447347737	1.0
0.1536	248.195862407	2.0
0.1638	248.942765434	0.0
0.1741	249.695359151	3.0
0.1843	250.439033578	2.0
0.1946	251.188374097	0.0
0.2048	251.928833881	0.0
0.215	252.667699365	3.0
0.2253	253.412194301	0.0
0.2355	254.147865929	2.0
0.2458	254.889142675	1.0
0.256	255.621634254	0.0
0.2662	256.352548689	1.0
0.2765	257.089031996	1.0
0.2867	257.816786944	0.0
0.297	258.550086693	0.0
0.3072	259.274695813	0.0
0.3174	259.997744761	0.0
0.3277	260.726302653	0.0
0.3379	261.446226115	0.0
0.3482	262.171634708	5.0
0.3584	262.888446194	0.0
0.3686	263.603714297	0.0
0.3789	264.324432062	1.0
0.3891	265.036608312	0.0
0.3994	265.754210667	0.0
0.4096	266.46330843	1.0
0.4198	267.170879419	2.0
0.4301	267.883841425	0.0
0.4403	268.588353834	0.0
0.4506	269.298233956	0.0
0.4608	269.999701004	0.0
0.471	270.699657709	0.0
0.4813	271.404947417	0.0
0.4915	272.101878455	1.0
0.5018	272.804119444	2.0
0.512	273.498037894	0.0
0.5222	274.190462253	2.0
0.5325	274.888162226	0.0
0.5427	275.577593478	0.0
0.553	276.272277539	0.0
0.5632	276.958728622	0.0
0.5734	277.643701692	0.0
0.5837	278.333893605	0.0
0.5939	279.015905777	0.0
0.6042	279.703114232	2.0
0.6144	280.382178305	0.0
0.6246	281.059780271	0.0
0.6349	281.742544918	1.0
0.6451	282.417217849	2.0
0.6554	283.097031144	0.0
0.6656	283.768787701	2.0
0.6758	284.439097883	0.0
0.6861	285.114515192	1.0
0.6963	285.781927859	1.0
0.7066	286.454425575	0.0
0.7168	287.118953252	0.0
0.727	287.78205012	1.0
0.7373	288.450199155	0.0
0.7475	289.110429688	0.0
0.7578	289.775690549	1.0
0.768	290.433067138	1.0
0.7782	291.089028315	0.0
0.7885	291.749987291	0.0
0.7987	292.403112978	0.0
0.809	293.061214861	0.0
0.8192	293.711517316	0.0
0.8294	294.36041959	2.0
0.8397	295.014265881	2.0
0.8499	295.660363179	1.0
0.8602	296.311383122	0.0
0.8704	296.954687568	0.0
0.8806	297.596606901	0.0
0.8909	298.243417048	0.0
0.9011	298.88256159	0.0
0.9114	299.526575804	0.0
0.9216	300.162957548	0.0
0.9318	300.797969085	0.0
0.9421	301.437818805	1.0
0.9523	302.07008541	0.0
0.9626	302.707169285	1.0
0.9728	303.336702823	0.0
0.983	303.9648809	0.0
0.9933	304.597845095	2.0
1.0035	305.223307778	1.0
1.0138	305.853535892	2.0
1.024	306.47629492	0.0
1.0342	307.097713071	0.0
1.0445	307.723865838	0.0
1.0547	308.342597817	0.0
1.065	308.966043946	0.0
1.0752	309.582101364	0.0
1.0854	310.196832336	0.0
1.0957	310.816246973	0.0
1.1059	311.428320679	0.0
1.1162	312.045057804	1.0
1.1264	312.654485731	0.0
1.1366	313.262601485	0.0
1.1469	313.875350502	0.0
1.1571	314.480837585	0.0
1.1674	315.090937903	1.0
1.1776	315.693807679	0.0
1.1878	316.295379402	0.0
1.1981	316.901534529	0.0
1.2083	317.500505869	0.0
1.2186	318.104040801	0.0
1.2288	318.700422999	0.0
1.239	319.295521113	0.0
1.2493	319.895153308	0.0
1.2595	320.487679022	0.0
1.2698	321.084719218	0.0
1.28	321.674683652	1.0
1.2902	322.26337782	0.0
1.3005	322.856557277	0.0
1.3107	323.442706728	1.0
1.321	324.033322079	1.0
1.3312	324.616937811	0.0
1.3414	325.199296948	0.0
1.3517	325.786093107	0.0
1.3619	326.365934909	1.0
1.3722	326.950194554	0.0
1.3824	327.527529905	0.0
1.3926	328.103622182	0.0
1.4029	328.684103733	1.0
1.4131	329.257705766	0.0
1.4234	329.8356781	0.0
1.4336	330.406800652	0.0
1.4438	330.976693509	0.0
1.4541	331.550928406	0.0
1.4643	332.118357815	0.0
1.4746	332.690110497	0.0
1.4848	333.255087108	0.0
1.495	333.818847257	1.0
1.5053	334.38690272	0.0
1.5155	334.948225932	0.0
1.5258	335.513825891	0.0
1.536	336.0727227	1.0
1.5462	336.630416135	0.0
1.5565	337.192358663	0.0
1.5667	337.747641386	0.0
1.577	338.307154834	0.0
1.5872	338.860037265	0.0
1.5974	339.411729272	0.0
1.6077	339.967624647	1.0
1.6179	340.516931884	1.0
1.6282	341.070424319	1.0
1.6384	341.617357093	0.0
1.6486	342.163112255	0.0
1.6589	342.713025551	1.0
1.6691	343.256421605	1.0
1.6794	343.80395782	1.0
1.6896	344.345004964	1.0
1.6998	344.884887167	0.0
1.7101	345.428882759	1.0
1.7203	345.966431241	0.0
1.7306	346.508075331	0.0
1.7408	347.04330018	1.0
1.751	347.577372625	2.0
1.7613	348.115514193	0.0
1.7715	348.647278031	0.0
1.7818	349.183093402	1.0
1.792	349.712558611	1.0
1.8022	350.240883817	0.0
1.8125	350.773234359	0.0
1.8227	351.2992758	8.0
1.833	351.829325177	1.0
1.8432	352.353092727	0.0
1.8534	352.875732541	0.0
1.8637	353.402354373	0.0
1.8739	353.922734999	0.0
1.8842	354.44708043	2.0
1.8944	354.965211634	0.0
1.9046	355.482227238	0.0
1.9149	356.003182008	1.0
1.9251	356.517962735	0.0
1.9354	357.036665601	0.0
1.9456	357.549221112	1.0
1.9558	358.060673029	0.0
1.9661	358.576021722	2.0
1.9763	359.085262812	4.0
1.9866	359.598383834	1.0
1.9968	360.105423653	0.0
2.007	360.611371754	0.0
2.0173	361.121174697	1.0
2.0275	361.624935762	1.0
2.0378	362.132535007	0.0
2.048	362.63411849	0.0
2.0582	363.134622003	0.0
2.0685	363.638938876	1.0
2.0787	364.137278888	3.0
2.089	364.639415776	1.0
2.0992	365.135601639	2.0
2.1094	365.630719154	1.0
2.1197	366.129608992	1.0
2.1299	366.622586288	0.0
2.1402	367.119319601	0.0
2.1504	367.610165929	0.0
2.1606	368.099955405	1.0
2.1709	368.59347661	3.0
2.1811	369.081148898	4.0
2.1914	369.572536785	1.0
2.2016	370.058101038	2.0
2.2118	370.542619811	0.0
2.2221	371.030830156	2.0
2.2323	371.513254525	0.0
2.2426	371.999354508	1.0
2.2528	372.479693526	4.0
2.263	372.958998316	2.0
2.2733	373.441954951	1.0
2.2835	373.919187875	4.0
2.2938	374.400056859	4.0
2.304	374.875226872	6.0
2.3142	375.349373786	3.0
2.3245	375.827133248	1.0
2.3347	376.299230592	1.0
2.345	376.774924868	2.0
2.3552	377.244981501	4.0
2.3654	377.714026045	1.0
2.3757	378.186644261	2.0
2.3859	378.65366129	2.0
2.3962	379.124236544	4.0
2.4064	379.589234823	5.0
2.4166	380.053231903	4.0
2.4269	380.5207642	2.0
2.4371	380.982755584	3.0
2.4474	381.448266903	5.0
2.4576	381.908261261	7.0
2.4678	382.367265195	3.0
2.4781	382.829766302	11.0
2.4883	383.286786123	5.0
2.4986	383.747288	3.0
2.5088	384.202332285	2.0
2.519	384.656396805	5.0
2.5293	385.113920863	6.0
2.5395	385.566022622	4.0
2.5498	386.021568965	4.0
2.56	386.471716446	8.0
2.5702	386.920894704	7.0
2.5805	387.373495274	5.0
2.5907	387.820731893	5.0
2.601	388.271376029	5.0
2.6112	388.716679401	6.0
2.6214	389.161023981	10.0
2.6317	389.608754043	8.0
2.6419	390.051177878	9.0
2.6522	390.496972561	9.0
2.6624	390.937483952	8.0
2.6726	391.377046869	8.0
2.6829	391.819958837	9.0
2.6931	392.257621678	12.0
2.7034	392.698619093	10.0
2.7136	393.134390071	11.0
2.7238	393.569222782	12.0
2.7341	394.007368503	18.0
2.7443	394.440321584	7.0
2.7546	394.876573356	8.0
2.7648	395.307654933	10.0
2.775	395.737808339	14.0
2.7853	396.171239105	9.0
2.7955	396.599533109	12.0
2.8058	397.031090306	10.0
2.816	397.457532945	14.0
2.8262	397.883057402	12.0
2.8365	398.31182395	7.0
2.8467	398.735509014	8.0
2.857	399.162422155	13.0
2.8672	399.584275777	16.0
2.8774	400.005221098	20.0
2.8877	400.42937362	8.0
2.8979	400.848499342	16.0
2.9082	401.270818402	17.0
2.9184	401.688132391	12.0
2.9286	402.104547851	9.0
2.9389	402.524136001	11.0
2.9491	402.938751444	14.0
2.9594	403.356525861	14.0
2.9696	403.769349067	13.0
2.9798	404.181283415	15.0
2.9901	404.596356309	11.0
3.0003	405.006510009	14.0
3.0106	405.41978869	8.0
3.0208	405.828169439	13.0
3.031	406.235670895	18.0
3.0413	406.646277125	20.0
3.0515	407.052017095	5.0
3.0618	407.460848418	8.0
3.072	407.864834517	14.0
3.0822	408.267950785	9.0
3.0925	408.674138415	18.0
3.1027	409.075512153	13.0
3.113	409.479943977	8.0
3.1232	409.879582717	12.0
3.1334	410.278360986	11.0
3.1437	410.680177567	6.0
3.1539	411.077232058	13.0
3.1642	411.477311726	3.0
3.1744	411.87264989	15.0
3.1846	412.267136843	11.0
3.1949	412.664629411	13.0
3.2051	413.057411135	10.0
3.2154	413.453185483	12.0
3.2256	413.84426935	11.0
3.2358	414.234511166	6.0
3.2461	414.627726253	11.0
3.2563	415.01628119	6.0
3.2666	415.407796547	6.0
3.2768	415.794671898	8.0
3.287	416.180714259	4.0
3.2973	416.569697896	10.0
3.3075	416.954071532	8.0
3.3178	417.341373729	5.0
3.328	417.724085853	6.0
3.3382	418.105973951	9.0
3.3485	418.490771673	13.0
3.3587	418.871009003	5.0
3.369	419.254143379	9.0
3.3792	419.632737077	7.0
3.3894	420.010515616	13.0
3.3997	420.391172468	3.0
3.4099	420.767318004	6.0
3.4202	421.14632941	10.0
3.4304	421.520849001	9.0
3.4406	421.894562205	11.0
3.4509	422.271122748	8.0
3.4611	422.643220521	5.0
3.4714	423.018153325	8.0
3.4816	423.388642651	13.0
3.4918	423.758334268	7.0
3.5021	424.130842583	10.0
3.5123	424.498936152	5.0
3.5226	424.869834245	8.0
3.5328	425.236336676	6.0
3.543	425.602049982	7.0
3.5533	425.970549675	11.0
3.5635	426.334682132	6.0
3.5738	426.701588931	5.0
3.584	427.06414737	6.0
3.5942	427.425925177	9.0
3.6045	427.790459387	13.0
3.6147	428.150673356	7.0
3.625	428.513631812	18.0
3.6352	428.872288703	8.0
3.6454	429.230173361	11.0
3.6557	429.59078476	3.0
3.6659	429.947122409	11.0
3.6762	430.306175011	4.0
3.6864	430.660972338	12.0
3.6966	431.015005742	11.0
3.7069	431.371736544	13.0
3.7171	431.724239587	9.0
3.7274	432.079428367	10.0
3.7376	432.430407663	10.0
3.7478	432.780631257	7.0
3.7581	433.133523222	8.0
3.7683	433.482232923	11.0
3.7786	433.833599461	15.0
3.7888	434.180801812	12.0
3.799	434.527256595	9.0
3.8093	434.876351033	16.0
3.8195	435.221308214	15.0
3.8298	435.568893639	12.0
3.84	435.912359691	9.0
3.8502	436.255086219	15.0
3.8605	436.600423996	19.0
3.8707	436.941669037	13.0
3.881	437.285514041	11.0
3.8912	437.625283999	20.0
3.9014	437.964322392	14.0
3.9117	438.305943934	15.0
3.9219	438.643516783	13.0
3.9322	438.983661616	14.0
3.9424	439.319775256	10.0
3.9526	439.655165202	16.0
3.9629	439.993110501	20.0
3.9731	440.327050675	13.0
3.9834	440.663535154	15.0
3.9936	440.996031822	18.0
4.0038	441.327812584	8.0
4.0141	441.662121199	14.0
4.0243	441.992467789	8.0
4.0346	442.325331306	12.0
4.0448	442.654249924	14.0
4.055	442.98246034	8.0
4.0653	443.313171407	17.0
4.0755	443.639963085	12.0
4.0858	443.969244604	17.0
4.096	444.294623676	13.0
4.1062	444.619302167	16.0
4.1165	444.9464544	8.0
4.1267	445.26972942	15.0
4.137	445.595467489	14.0
4.1472	445.917345105	13.0
4.1574	446.238529679	13.0
4.1677	446.562161374	7.0
4.1779	446.881957581	14.0
4.1882	447.20419033	22.0
4.1984	447.522604169	15.0
4.2086	447.840332425	15.0
4.2189	448.160481468	19.0
4.2291	448.476836296	7.0
4.2394	448.795601448	11.0
4.2496	449.110588785	7.0
4.2598	449.424897917	15.0
4.2701	449.741601785	20.0
4.2803	450.054552268	8.0
4.2906	450.369887137	9.0
4.3008	450.681484845	11.0
4.311	450.992411646	9.0
4.3213	451.305707413	10.0
4.3315	451.615290187	16.0
4.3418	451.927231686	9.0
4.352	452.235476242	12.0
4.3622	452.54305711	12.0
4.3725	452.852981452	12.0
4.3827	453.159232756	11.0
4.393	453.467817403	9.0
4.4032	453.77274489	7.0
4.4134	454.077015831	11.0
4.4237	454.383605027	10.0
4.4339	454.686560712	11.0
4.4442	454.991824631	18.0
4.4544	455.293470745	8.0
4.4646	455.594467378	14.0
4.4749	455.897757319	9.0
4.4851	456.197452849	6.0
4.4954	456.499431774	14.0
4.5056	456.797831826	12.0
4.5158	457.095589386	3.0
4.5261	457.395615576	5.0
4.5363	457.692086035	13.0
4.5466	457.990815316	9.0
4.5568	458.286004238	8.0
4.567	458.580557581	13.0
4.5773	458.877355141	7.0
4.5875	459.170635234	15.0
4.5978	459.466149842	12.0
4.608	459.758162189	12.0
4.6182	460.049545797	8.0
4.6285	460.343149471	13.0
4.6387	460.63327353	12.0
4.649	460.925608058	15.0
4.6592	461.214478013	8.0
4.6694	461.502725996	14.0
4.6797	461.793170154	9.0
4.6899	462.080172142	7.0
4.7002	462.369360812	6.0
4.7104	462.655122191	13.0
4.7206	462.940268291	8.0
4.7309	463.227586933	12.0
4.7411	463.511500447	10.0
4.7514	463.797577111	8.0
4.7616	464.080263367	9.0
4.7718	464.362340964	12.0
4.7821	464.646567725	14.0
4.7923	464.927426	10.0
4.8026	465.210424148	10.0
4.8128	465.490068371	13.0
4.823	465.769110487	12.0
4.8333	466.050278638	11.0
4.8435	466.328114552	16.0
4.8538	466.608067312	10.0
4.864	466.884702239	12.0
4.8742	467.160741538	15.0
4.8845	467.438883993	7.0
4.8947	467.713730071	7.0
4.905	467.990670215	12.0
4.9152	468.26432823	9.0
4.9254	468.537397026	11.0
4.9357	468.812546346	5.0
4.9459	469.084434761	5.0
4.9562	469.358394707	11.0
4.9664	469.629107845	16.0
4.9766	469.899238104	14.0
4.9869	470.171426498	8.0
4.9971	470.440389079	9.0
5.0074	470.711400899	12.0
5.0176	470.979200849	17.0
5.0278	471.246424193	5.0
5.0381	471.515683525	12.0
5.0483	471.781751756	12.0
5.0586	472.049847175	8.0
5.0688	472.314765287	8.0
5.079	472.579112998	10.0
5.0893	472.845474787	10.0
5.0995	473.108679816	9.0
5.1098	473.373890217	4.0
5.12	473.635957503	11.0
5.1302	473.897460526	9.0
5.1405	474.160955953	5.0
5.1507	474.421328591	11.0
5.161	474.68368502	17.0
5.1712	474.942932159	8.0
5.1814	475.201621106	6.0
5.1917	475.462281017	9.0
5.2019	475.719851743	7.0
5.2122	475.979384913	5.0
5.2224	476.235842252	10.0
5.2326	476.491747406	9.0
5.2429	476.749602314	10.0
5.2531	477.004401281	8.0
5.2634	477.261141573	8.0
5.2736	477.514839133	8.0
5.2838	477.767990451	4.0
5.2941	478.023070542	14.0
5.3043	478.275127576	7.0
5.3146	478.529105045	9.0
5.3248	478.780072525	7.0
5.335	479.030499642	7.0
5.3453	479.282834775	7.0
5.3555	479.532179383	5.0
5.3658	479.78342376	8.0
5.376	480.031690539	6.0
5.3862	480.279422769	5.0
5.3965	480.529042483	11.0
5.4067	480.775703855	7.0
5.417	481.024244551	5.0
5.4272	481.269839691	7.0
5.4374	481.514906036	6.0
5.4477	481.761839552	9.0
5.4579	482.005846561	11.0
5.4682	482.251712671	11.0
5.4784	482.494664923	4.0
5.4886	482.73709407	9.0
5.4989	482.981370296	7.0
5.5091	483.222751506	6.0
5.5194	483.465971811	6.0
5.5296	483.706309616	10.0
5.5398	483.946129943	6.0
5.5501	484.187777474	12.0
5.5603	484.426561143	6.0
5.5706	484.667164116	7.0
5.5808	484.904915606	9.0
5.591	485.142155189	8.0
5.6013	485.381202312	10.0
5.6115	485.617416392	10.0
5.6218	485.855430198	10.0
5.632	486.090623207	11.0
5.6422	486.325309817	5.0
5.6525	486.561784515	5.0
5.6627	486.795456657	5.0
5.673	487.030909159	10.0
5.6832	487.263571219	9.0
5.6934	487.495732328	8.0
5.7037	487.729662285	12.0
5.7139	487.960819844	8.0
5.7242	488.193738604	5.0
5.7344	488.42389695	12.0
5.7446	488.653559737	8.0
5.7549	488.884972336	4.0
5.7651	489.113642372	9.0
5.7754	489.344054655	10.0
5.7856	489.571736231	13.0
5.7958	489.79892758	8.0
5.8061	490.027849911	11.0
5.8163	490.254059192	4.0
5.8266	490.481991972	6.0
5.8368	490.70722343	6.0
5.847	490.931969937	12.0
5.8573	491.158428798	5.0
5.8675	491.382203805	10.0
5.8778	491.607683765	7.0
5.888	491.830491471	8.0
5.8982	492.052819445	8.0
5.9085	492.276841346	8.0
5.9187	492.498208274	5.0
5.929	492.721261808	6.0
5.9392	492.941671845	3.0
5.9494	493.161607312	8.0
5.9597	493.383218478	6.0
5.9699	493.602203241	7.0
5.9802	493.82285646	14.0
5.9904	494.040894629	7.0
6.0006	494.258463336	7.0
6.0109	494.477689709	10.0
6.0211	494.694317942	9.0
6.0314	494.912596677	12.0
6.0416	495.128288502	6.0
6.0518	495.343515917	6.0
6.0621	495.56038316	7.0
6.0723	495.774680223	8.0
6.0826	495.990610025	10.0
6.0928	496.203980757	14.0
6.103	496.416892075	14.0
6.1133	496.631425575	3.0
6.1235	496.843416553	12.0
6.1338	497.0570227	3.0
6.144	497.268097315	14.0
6.1542	497.478717461	10.0
6.1645	497.690942331	6.0
6.1747	497.90065204	6.0
6.185	498.111959538	10.0
6.1952	498.320762745	8.0
6.2054	498.529116374	10.0
6.2157	498.739057459	9.0
6.2259	498.946510448	8.0
6.2362	499.155544032	6.0
6.2464	499.362100275	10.0
6.2566	499.568211777	11.0
6.2669	499.775893653	8.0
6.2771	499.981114207	5.0
6.2874	500.187898347	8.0
6.2976	500.392231805	7.0
6.3078	500.596125309	8.0
6.3181	500.801572286	4.0
6.3283	501.00458443	4.0
6.3386	501.209143333	7.0
6.3488	501.411277926	11.0
6.359	501.612977299	15.0
6.3693	501.816213429	6.0
6.3795	502.017040926	5.0
6.3898	502.219398538	5.0
6.4	502.419357929	4.0
6.4102	502.618886783	9.0
6.4205	502.819935856	5.0
6.4307	503.018602217	7.0
6.441	503.218782226	6.0
6.4512	503.416589822	6.0
6.4614	503.613971514	6.0
6.4717	503.812857067	5.0
6.4819	504.009385547	6.0
6.4922	504.207411387	8.0
6.5024	504.403090344	3.0
6.5126	504.59834798	5.0
6.5229	504.795093293	9.0
6.5331	504.989506899	10.0
6.5434	505.185401752	10.0
6.5536	505.378974976	4.0
6.5638	505.572131414	7.0
6.5741	505.76675952	6.0
6.5843	505.95908101	7.0
6.5946	506.152867807	5.0
6.6048	506.344357958	6.0
6.615	506.535435809	7.0
6.6253	506.72796949	7.0
6.6355	506.918221378	10.0
6.6458	507.109922805	1.0
6.656	507.2993523	4.0
6.6662	507.488373931	7.0
6.6765	507.678835727	5.0
6.6867	507.867040284	7.0
6.697	508.056678781	8.0
6.7072	508.244069796	6.0
6.7174	508.431057335	3.0
6.7277	508.619469541	9.0
6.7379	508.805648799	10.0
6.7482	508.993246565	10.0
6.7584	509.178621036	4.0
6.7686	509.363596372	6.0
6.7789	509.549981045	3.0
6.7891	509.734156798	6.0
6.7994	509.919735795	4.0
6.8096	510.103115421	6.0
6.8198	510.286100208	4.0
6.8301	510.470479165	8.0
6.8403	510.652672974	3.0
6.8506	510.836254925	8.0
6.8608	511.017661174	7.0
6.871	511.198676833	8.0
6.8813	511.381071659	7.0
6.8915	511.561304851	8.0
6.9018	511.742911248	5.0
6.912	511.922365355	4.0
6.9222	512.101433075	2.0
6.9325	512.281865121	5.0
6.9427	512.460158795	2.0
6.953	512.639810897	4.0
6.9632	512.817333869	5.0
6.9734	512.994474614	2.0
6.9837	513.172965002	3.0
6.9939	513.349340029	2.0
7.0042	513.527058866	9.0
7.0144	513.702671485	5.0
7.0246	513.87790599	3.0
7.0349	514.054475614	2.0
7.0451	514.228952641	2.0
7.0554	514.404759017	3.0
7.0656	514.578481842	5.0
7.0758	514.75183062	1.0
7.0861	514.92650015	4.0
7.0963	515.099099602	4.0
7.1066	515.273014098	1.0
7.1168	515.444867463	3.0
7.127	515.616350807	4.0
7.1373	515.789140691	3.0
7.1475	515.959882773	1.0
7.1578	516.131925747	1.0
7.168	516.301929771	3.0
7.1782	516.471567756	1.0
7.1885	516.64249822	3.0
7.1987	516.811402919	4.0
7.209	516.981594511	6.0
7.2192	517.149769095	4.0
7.2294	517.317581578	2.0
7.2397	517.486672632	0.0
7.2499	517.653759721	2.0
7.2602	517.822119854	0.0
7.2704	517.988484684	0.0
7.2806	518.15449131	5.0
7.2909	518.321762749	4.0
7.3011	518.487051787	3.0
7.3114	518.65360017	4.0
7.3216	518.818174721	3.0
7.3318	518.982394924	1.0
7.3421	519.147866328	1.0
7.3523	519.311376664	0.0
7.3626	519.476132793	1.0
7.3728	519.638936331	1.0
7.383	519.801389334	2.0
7.3933	519.965080074	1.0
7.4035	520.126830849	6.0
7.4138	520.289814012	1.0
7.424	520.450865595	2.0
7.4342	520.611570415	0.0
7.4445	520.773499653	1.0
7.4547	520.933509802	3.0
7.465	521.094739077	1.0
7.4752	521.254057559	1.0
7.4854	521.413033008	1.0
7.4957	521.5732197	1.0
7.5059	521.731507954	2.0
7.5162	521.891002215	2.0
7.5264	522.048606245	2.0
7.5366	522.205870935	1.0
7.5469	522.364333832	0.0
7.5571	522.520918721	4.0
7.5674	522.678696639	2.0
7.5776	522.834604667	0.0
7.5878	522.990177006	2.0
7.5981	523.146934658	0.0
7.6083	523.301834513	0.0
7.6186	523.457914557	0.0
7.6288	523.612144834	2.0
7.639	523.766043034	0.0
7.6493	523.921113792	1.0
7.6595	524.074346745	2.0
7.6698	524.228747187	2.0
7.68	524.381317767	1.0
7.6902	524.533559844	1.0
7.7005	524.686961862	2.0
7.7107	524.83854585	0.0
7.721	524.991284764	2.0
7.7312	525.142213508	1.0
7.7414	525.292817284	0.0
7.7517	525.444568517	0.0
7.7619	525.594521286	0.0
7.7722	525.745616553	0.0
7.7824	525.894921128	0.0
7.7926	526.043904233	0.0
7.8029	526.194022447	0.0
7.8131	526.34236155	1.0
7.8234	526.491830856	1.0
7.8336	526.639528742	1.0
7.8438	526.786908616	0.0
7.8541	526.935411384	1.0
7.8643	527.082154186	1.0
7.8746	527.230015029	0.0
7.8848	527.376123514	0.0
7.895	527.52191741	0.0
7.9053	527.668822116	1.0
7.9155	527.813985796	0.0
7.9258	527.960255484	2.0
7.936	528.104791673	1.0
7.9462	528.249016657	0.0
7.9565	528.394340498	0.0
7.9667	528.537942048	0.0
7.977	528.682637706	0.0
7.9872	528.825618517	0.0
7.9974	528.968291473	0.0
8.0077	529.112051461	0.0
8.0179	529.254107692	1.0
8.0282	529.397246256	2.0
8.0384	529.538688428	0.0
8.0486	529.679826058	0.0
8.0589	529.822039022	0.0
8.0691	529.962566563	0.0
8.0794	530.104164791	1.0
8.0896	530.244084881	0.0
8.0998	530.383703706	1.0
8.1101	530.524386294	2.0
