TL-DOS Lehrstuhlversuch
detector=R1407604
job_number=2015-11-02-009
irradiation_dose [mSv]=0.3

[BEGIN DATA]
time [sec] 	 temperature [K] 	 photoncount 
0.0	110.702903385	0.0
0.0102	112.73669393	0.0
0.0205	114.780709539	0.0
0.0307	116.795306016	2.0
0.041	118.820031056	0.0
0.0512	120.81561461	4.0
0.0614	122.801805033	0.0
0.0717	124.797981206	1.0
0.0819	126.76542679	0.0
0.0922	128.742763884	1.0
0.1024	130.691641536	2.0
0.1126	132.6313459	2.0
0.1229	134.580802301	1.0
0.1331	136.502200543	1.0
0.1434	138.433258786	2.0
0.1536	140.336523671	0.0
0.1638	142.230829966	1.0
0.1741	144.134660054	0.0
0.1843	146.011088675	4.0
0.1946	147.896951208	0.0
0.2048	149.755670876	0.0
0.215	151.605641626	1.0
0.2253	153.464913269	1.0
0.2355	155.297424765	1.0
0.2458	157.139149377	0.0
0.256	158.954366393	0.0
0.2662	160.761039255	0.0
0.2765	162.576795327	0.0
0.2867	164.366417564	0.0
0.297	166.165037286	0.0
0.3072	167.937769813	0.0
0.3174	169.702158159	1.0
0.3277	171.475417126	0.0
0.3379	173.22315391	0.0
0.3482	174.979677597	2.0
0.3584	176.710919969	0.0
0.3686	178.434013453	1.0
0.3789	180.165769943	0.0
0.3891	181.872601589	2.0
0.3994	183.588014482	2.0
0.4096	185.278737761	0.0
0.4198	186.961502874	0.0
0.4301	188.652728239	1.0
0.4403	190.319612115	0.0
0.4506	191.994876399	2.0
0.4608	193.646028919	0.0
0.471	195.289409531	0.0
0.4813	196.941052386	1.0
0.4915	198.568923456	0.0
0.5018	200.204978793	0.0
0.512	201.817486694	0.0
0.5222	203.422404585	0.0
0.5325	205.035391344	0.0
0.5427	206.625162689	0.0
0.553	208.22292675	1.0
0.5632	209.797694495	0.0
0.5734	211.365049871	0.0
0.5837	212.940285266	1.0
0.5939	214.492848595	0.0
0.6042	216.053217575	0.0
0.6144	217.591128457	0.0
0.6246	219.121800456	2.0
0.6349	220.660168044	1.0
0.6451	222.176394197	0.0
0.6554	223.700243313	0.0
0.6656	225.202159955	1.0
0.6758	226.697007136	0.0
0.6861	228.199369795	2.0
0.6963	229.680109231	0.0
0.7066	231.168293216	0.0
0.7168	232.63505805	1.0
0.727	234.094918881	0.0
0.7373	235.562119292	0.0
0.7475	237.008202564	1.0
0.7578	238.46155615	0.0
0.768	239.89399189	1.0
0.7782	241.319685213	0.0
0.7885	242.752546337	0.0
0.7987	244.16478456	1.0
0.809	245.584122937	0.0
0.8192	246.983033044	1.0
0.8294	248.375358537	0.0
0.8397	249.774684072	1.0
0.8499	251.153869377	0.0
0.8602	252.53998866	0.0
0.8704	253.906157788	0.0
0.8806	255.265896414	0.0
0.8909	256.632471247	0.0
0.9011	257.979377226	0.0
0.9114	259.333054895	0.0
0.9216	260.667249335	0.0
0.9318	261.995163777	1.0
0.9421	263.329754427	1.0
0.9523	264.645136565	0.0
0.9626	265.967131905	0.0
0.9728	267.270100014	0.0
0.983	268.566935104	0.0
0.9933	269.87029015	1.0
1.0035	271.154886251	2.0
1.0138	272.445940774	1.0
1.024	273.718413392	1.0
1.0342	274.984896533	0.0
1.0445	276.257747031	1.0
1.0547	277.512277631	0.0
1.065	278.773115496	1.0
1.0752	280.015806359	1.0
1.0854	281.252647926	2.0
1.0957	282.495707825	3.0
1.1059	283.720876596	1.0
1.1162	284.952205013	1.0
1.1264	286.165811152	1.0
1.1366	287.373704896	0.0
1.1469	288.587671433	1.0
1.1571	289.784165579	0.0
1.1674	290.986675206	2.0
1.1776	292.171877337	1.0
1.1878	293.351500771	0.0
1.1981	294.537054867	1.0
1.2083	295.705545505	1.0
1.2186	296.879910835	1.0
1.2288	298.037373745	1.0
1.239	299.189388525	0.0
1.2493	300.347195161	1.0
1.2595	301.488337705	0.0
1.2698	302.635217444	0.0
1.28	303.76559036	0.0
1.2902	304.890642655	0.0
1.3005	306.021351252	1.0
1.3107	307.135785773	1.0
1.321	308.255823212	1.0
1.3312	309.359740164	2.0
1.3414	310.458461023	1.0
1.3517	311.562705799	0.0
1.3619	312.651057389	1.0
1.3722	313.744880763	2.0
1.3824	314.822960942	4.0
1.3926	315.895966643	1.0
1.4029	316.974366975	2.0
1.4131	318.037246094	1.0
1.4234	319.105468933	0.0
1.4336	320.158317041	1.0
1.4438	321.206209436	2.0
1.4541	322.259370204	2.0
1.4643	323.297373027	3.0
1.4746	324.340594502	1.0
1.4848	325.368801086	5.0
1.495	326.392167944	0.0
1.5053	327.42067987	0.0
1.5155	328.434388617	4.0
1.5258	329.453193876	1.0
1.536	330.457335662	3.0
1.5462	331.456750994	4.0
1.5565	332.461190975	2.0
1.5667	333.451174241	0.0
1.577	334.446134736	4.0
1.5872	335.426774952	3.0
1.5974	336.402799334	1.0
1.6077	337.383730765	4.0
1.6179	338.350543836	1.0
1.6282	339.322217645	1.0
1.6384	340.279906336	0.0
1.6486	341.233087225	5.0
1.6589	342.191060316	2.0
1.6691	343.135245481	4.0
1.6794	344.084177621	4.0
1.6896	345.019451959	5.0
1.6998	345.950323999	0.0
1.7101	346.885876081	4.0
1.7203	347.807962938	4.0
1.7306	348.734685669	2.0
1.7408	349.648070254	4.0
1.751	350.557155575	2.0
1.7613	351.470811404	7.0
1.7715	352.371317156	8.0
1.7818	353.276350281	8.0
1.792	354.168357435	6.0
1.8022	355.056165947	9.0
1.8125	355.948437996	3.0
1.8227	356.827867741	4.0
1.833	357.711718898	10.0
1.8432	358.582848951	7.0
1.8534	359.449878631	9.0
1.8637	360.321267379	10.0
1.8739	361.180114393	10.0
1.8842	362.043279338	7.0
1.8944	362.894020912	9.0
1.9046	363.740758079	10.0
1.9149	364.591752293	12.0
1.9251	365.430498308	14.0
1.9354	366.273461193	11.0
1.9456	367.104291472	10.0
1.9558	367.931211067	15.0
1.9661	368.762288074	11.0
1.9763	369.581403545	17.0
1.9866	370.404637193	18.0
1.9968	371.216022194	11.0
2.007	372.023588039	13.0
2.0173	372.835213993	17.0
2.0275	373.635158367	18.0
2.0378	374.439124533	19.0
2.048	375.231519365	16.0
2.0582	376.020184427	24.0
2.0685	376.812814573	25.0
2.0787	377.594036543	27.0
2.089	378.379186176	18.0
2.0992	379.153035297	20.0
2.1094	379.923241943	23.0
2.1197	380.697320871	31.0
2.1299	381.460258626	21.0
2.1402	382.22703212	25.0
2.1504	382.982769586	31.0
2.1606	383.734949827	20.0
2.1709	384.490911722	35.0
2.1811	385.235993199	28.0
2.1914	385.98482064	25.0
2.2016	386.722870348	40.0
2.2118	387.457446086	37.0
2.2221	388.19571497	43.0
2.2323	388.923358088	44.0
2.2426	389.654659497	49.0
2.2528	390.375435423	37.0
2.263	391.092818685	46.0
2.2733	391.813808656	55.0
2.2835	392.524421553	44.0
2.2938	393.238607121	50.0
2.304	393.94251355	54.0
2.3142	394.64310672	42.0
2.3245	395.347222185	42.0
2.3347	396.041203448	56.0
2.345	396.738673765	54.0
2.3552	397.426105522	64.0
2.3654	398.110301566	65.0
2.3757	398.797937466	62.0
2.3859	399.475676352	51.0
2.3962	400.156822631	67.0
2.4064	400.8281653	56.0
2.4166	401.496347986	52.0
2.4269	402.167890021	43.0
2.4371	402.829766677	62.0
2.4474	403.494970977	58.0
2.4576	404.150601117	60.0
2.4678	404.803145232	62.0
2.4781	405.458970071	49.0
2.4883	406.105355747	60.0
2.4986	406.754991184	65.0
2.5088	407.395276541	67.0
2.519	408.0325481	56.0
2.5293	408.673023599	49.0
2.5395	409.304280855	65.0
2.5498	409.938711813	53.0
2.56	410.564011526	49.0
2.5702	411.186367978	38.0
2.5805	411.811853383	42.0
2.5907	412.428336294	56.0
2.601	413.047918628	42.0
2.6112	413.65858343	42.0
2.6214	414.266373857	53.0
2.6317	414.877220006	38.0
2.6419	415.47927436	39.0
2.6522	416.084355597	20.0
2.6624	416.680728013	49.0
2.6726	417.274293328	41.0
2.6829	417.870842846	32.0
2.6931	418.458806339	41.0
2.7034	419.049725871	40.0
2.7136	419.63214041	33.0
2.7238	420.211813546	36.0
2.7341	420.794401042	30.0
2.7443	421.368603465	32.0
2.7546	421.945692742	35.0
2.7648	422.514476081	35.0
2.775	423.080582181	34.0
2.7853	423.649534429	23.0
2.7955	424.210297855	24.0
2.8058	424.773880569	27.0
2.816	425.329351743	31.0
2.8262	425.882208337	30.0
2.8365	426.437844466	24.0
2.8467	426.98548343	23.0
2.857	427.535875697	36.0
2.8672	428.078346272	31.0
2.8774	428.618263459	40.0
2.8877	429.160895129	34.0
2.8979	429.695716803	30.0
2.9082	430.233227341	41.0
2.9184	430.763001591	42.0
2.9286	431.290282215	32.0
2.9389	431.820213789	29.0
2.9491	432.342518158	33.0
2.9594	432.867448459	28.0
2.9696	433.384823537	40.0
2.9798	433.899763351	45.0
2.9901	434.417292071	43.0
3.0003	434.927372098	44.0
3.0106	435.440016597	42.0
3.0208	435.945282701	48.0
3.031	436.448170537	45.0
3.0413	436.953586688	47.0
3.0515	437.451728478	55.0
3.0618	437.952374721	43.0
3.072	438.445815257	47.0
3.0822	438.936933188	58.0
3.0925	439.430520258	49.0
3.1027	439.917003223	49.0
3.113	440.405932024	39.0
3.1232	440.887823765	51.0
3.1334	441.367447261	66.0
3.1437	441.849482107	63.0
3.1539	442.324579116	39.0
3.1642	442.802064718	56.0
3.1744	443.272677959	54.0
3.1846	443.741076043	72.0
3.1949	444.21182904	64.0
3.2051	444.675806577	49.0
3.2154	445.142116804	58.0
3.2256	445.601715515	44.0
3.2358	446.059150913	62.0
3.2461	446.518886109	58.0
3.2563	446.972004422	49.0
3.2666	447.427400829	65.0
3.2768	447.8762428	63.0
3.287	448.322972091	70.0
3.2973	448.771947353	56.0
3.3075	449.214460598	58.0
3.3178	449.659198619	57.0
3.328	450.097535608	44.0
3.3382	450.533809364	53.0
3.3485	450.972276524	68.0
3.3587	451.404432909	60.0
3.369	451.838761999	59.0
3.3792	452.266839872	57.0
3.3894	452.6929028	61.0
3.3997	453.121107798	57.0
3.4099	453.543149721	57.0
3.4202	453.967313498	39.0
3.4304	454.385372365	49.0
3.4406	454.801463447	42.0
3.4509	455.219646463	54.0
3.4611	455.63181065	50.0
3.4714	456.046047029	56.0
3.4816	456.454321382	54.0
3.4918	456.860674004	53.0
3.5021	457.2690696	56.0
3.5123	457.671587235	64.0
3.5226	458.076128564	43.0
3.5328	458.474847405	44.0
3.543	458.871689493	42.0
3.5533	459.27052674	79.0
3.5635	459.663623598	51.0
3.5738	460.058696785	45.0
3.584	460.448083758	45.0
3.5942	460.835637902	42.0
3.6045	461.225140509	45.0
3.6147	461.609037079	54.0
3.625	461.994863723	45.0
3.6352	462.375137236	49.0
3.6454	462.753620818	53.0
3.6557	463.13400726	42.0
3.6659	463.508918871	36.0
3.6762	463.885715383	52.0
3.6864	464.257088735	61.0
3.6966	464.626714047	43.0
3.7069	464.998197683	48.0
3.7171	465.364334626	53.0
3.7274	465.732312354	41.0
3.7376	466.094993848	53.0
3.7478	466.455968215	35.0
3.7581	466.818757414	63.0
3.7683	467.176325055	50.0
3.7786	467.5356904	44.0
3.7888	467.889883466	43.0
3.799	468.242409361	52.0
3.8093	468.596707611	46.0
3.8195	468.945906512	47.0
3.8298	469.296861043	46.0
3.84	469.642764351	42.0
3.8502	469.987039506	43.0
3.8605	470.333045535	46.0
3.8707	470.674071564	66.0
3.881	471.016812133	45.0
3.8912	471.354619701	46.0
3.9014	471.690837222	50.0
3.9117	472.028745107	42.0
3.9219	472.361789547	49.0
3.9322	472.696508398	52.0
3.9424	473.026409703	48.0
3.9526	473.354758177	58.0
3.9629	473.684757452	44.0
3.9731	474.010007109	49.0
3.9834	474.336891988	39.0
3.9936	474.659072074	43.0
4.0038	474.979735672	50.0
4.0141	475.302011434	48.0
4.0243	475.619648743	41.0
4.0346	475.938883001	43.0
4.0448	476.25352258	42.0
4.055	476.566681164	52.0
4.0653	476.881414181	57.0
4.0755	477.191617304	43.0
4.0858	477.503380002	42.0
4.096	477.810655557	44.0
4.1062	478.116484779	39.0
4.1165	478.423851585	54.0
4.1267	478.726794518	47.0
4.137	479.031260523	44.0
4.1472	479.331344407	35.0
4.1574	479.630015808	34.0
4.1677	479.930188807	41.0
4.1779	480.226041471	48.0
4.1882	480.523381562	37.0
4.1984	480.816442092	49.0
4.2086	481.108123199	35.0
4.2189	481.401270758	45.0
4.2291	481.690199099	46.0
4.2394	481.980580054	36.0
4.2496	482.26678161	42.0
4.2598	482.551636027	45.0
4.2701	482.837922575	42.0
4.2803	483.120088655	33.0
4.2906	483.40367335	27.0
4.3008	483.683176463	38.0
4.311	483.961363967	37.0
4.3213	484.240950084	30.0
4.3315	484.51651217	45.0
4.3418	484.793459669	34.0
4.352	485.066421114	46.0
4.3622	485.338097742	40.0
4.3725	485.611140247	46.0
4.3827	485.880252904	38.0
4.393	486.150718548	42.0
4.4032	486.417291431	46.0
4.4134	486.682609567	43.0
4.4237	486.949261613	40.0
4.4339	487.212075786	49.0
4.4442	487.476211281	37.0
4.4544	487.736545124	30.0
4.4646	487.995653585	33.0
4.4749	488.256064738	40.0
4.4851	488.512727842	32.0
4.4954	488.770681342	35.0
4.5056	489.024922167	36.0
4.5158	489.27796629	34.0
4.5261	489.532282615	35.0
4.5363	489.782938613	32.0
4.5466	490.034854806	35.0
4.5568	490.283145217	40.0
4.567	490.530266936	35.0
4.5773	490.77863108	42.0
4.5875	491.023420567	42.0
4.5978	491.269440754	36.0
4.608	491.511920019	32.0
4.6182	491.753257944	27.0
4.6285	491.995809217	45.0
4.6387	492.234869495	41.0
4.649	492.47513167	36.0
4.6592	492.711935797	30.0
4.6694	492.947625296	34.0
4.6797	493.184499745	34.0
4.6899	493.417964905	40.0
4.7002	493.652603832	36.0
4.7104	493.883865645	42.0
4.7206	494.114038918	37.0
4.7309	494.345369407	34.0
4.7411	494.573370401	42.0
4.7514	494.80251769	33.0
4.7616	495.028366904	40.0
4.7718	495.253153056	44.0
4.7821	495.479069341	30.0
4.7923	495.701734054	35.0
4.8026	495.925518235	38.0
4.8128	496.146081532	32.0
4.823	496.365606646	28.0
4.8333	496.586235443	40.0
4.8435	496.80368877	52.0
4.8538	497.022235364	34.0
4.864	497.237636458	41.0
4.8742	497.452023667	33.0
4.8845	497.667488728	32.0
4.8947	497.87985264	27.0
4.905	498.093284231	39.0
4.9152	498.303643941	37.0
4.9254	498.513013496	49.0
4.9357	498.723435676	33.0
4.9459	498.930829289	32.0
4.9562	499.139265592	37.0
4.9664	499.34470191	41.0
4.9766	499.549171248	40.0
4.9869	499.754668573	41.0
4.9971	499.957208214	40.0
5.0074	500.160766142	28.0
5.0176	500.361394298	44.0
5.0278	500.561078106	26.0
5.0381	500.761765842	35.0
5.0483	500.959565118	36.0
5.0586	501.158358846	34.0
5.0688	501.354291374	29.0
5.079	501.549301656	32.0
5.0893	501.745292369	34.0
5.0995	501.938462225	36.0
5.1098	502.132603259	29.0
5.12	502.323950058	27.0
5.1302	502.514396196	29.0
5.1405	502.705799818	42.0
5.1507	502.894448604	29.0
5.161	503.084045839	36.0
5.1712	503.270914236	41.0
5.1814	503.456903051	31.0
5.1917	503.643826942	24.0
5.2019	503.828060472	35.0
5.2122	504.013220253	32.0
5.2224	504.195715064	25.0
5.2326	504.377350879	24.0
5.2429	504.559899885	29.0
5.2531	504.739821497	27.0
5.2634	504.920647681	31.0
5.2736	505.098871268	26.0
5.2838	505.276255964	37.0
5.2941	505.454532477	34.0
5.3043	505.630243089	30.0
5.3146	505.806837103	26.0
5.3248	505.980889432	26.0
5.335	506.154122504	26.0
5.3453	506.328226521	29.0
5.3555	506.499824691	36.0
5.3658	506.672285586	34.0
5.376	506.842264284	26.0
5.3862	507.0114429	26.0
5.3965	507.181472075	36.0
5.4067	507.349054053	18.0
5.417	507.517478565	24.0
5.4272	507.683478974	28.0
5.4374	507.848698026	14.0
5.4477	508.014747731	20.0
5.4579	508.178407514	29.0
5.4682	508.342890112	22.0
5.4784	508.505005342	26.0
5.4886	508.666357502	23.0
5.4989	508.828520875	21.0
5.5091	508.988350261	28.0
5.5194	509.148983204	17.0
5.5296	509.307304186	23.0
5.5398	509.464879959	17.0
5.5501	509.623247957	22.0
5.5603	509.779336595	21.0
5.5706	509.936209982	24.0
5.5808	510.09082552	23.0
5.591	510.24471329	15.0
5.6013	510.399374743	13.0
5.6115	510.551810184	16.0
5.6218	510.705012007	11.0
5.632	510.856008825	8.0
5.6422	511.006294907	10.0
5.6525	511.157336566	9.0
5.6627	511.306204311	13.0
5.673	511.455820502	11.0
5.6832	511.603283295	15.0
5.6934	511.750051986	11.0
5.7037	511.897558571	17.0
5.7139	512.042942121	9.0
5.7242	512.189056599	10.0
5.7344	512.33306808	10.0
5.7446	512.476401704	14.0
5.7549	512.620455951	12.0
5.7651	512.762436852	13.0
5.7754	512.905131574	10.0
5.7856	513.045772519	5.0
5.7958	513.185751472	13.0
5.8061	513.326434182	7.0
5.8163	513.465092072	4.0
5.8266	513.604447077	12.0
5.8368	513.741796372	5.0
5.847	513.878499169	5.0
5.8573	514.015889252	7.0
5.8675	514.151301905	11.0
5.8778	514.287395357	6.0
5.888	514.421530042	7.0
5.8982	514.55503336	4.0
5.9085	514.689207879	4.0
5.9187	514.821451248	4.0
5.929	514.954359483	7.0
5.9392	515.085354795	5.0
5.9494	515.215733517	10.0
5.9597	515.34676773	3.0
5.9699	515.475915992	3.0
5.9802	515.605713558	6.0
5.9904	515.733642972	4.0
6.0006	515.860970228	3.0
6.0109	515.988937633	4.0
6.0211	516.115063228	3.0
6.0314	516.241822929	7.0
6.0416	516.366758203	7.0
6.0518	516.491105411	5.0
6.0621	516.616077786	2.0
6.0723	516.739251457	5.0
6.0826	516.863044394	2.0
6.0928	516.985055603	0.0
6.103	517.106492511	4.0
6.1133	517.228539953	1.0
6.1235	517.348830789	3.0
6.1338	517.469726398	5.0
6.144	517.58888198	2.0
6.1542	517.707476701	2.0
6.1645	517.826667668	3.0
6.1747	517.944143141	2.0
6.185	518.062209233	1.0
6.1952	518.178576022	6.0
6.2054	518.294395077	1.0
6.2157	518.410796422	4.0
6.2259	518.525522425	1.0
6.2362	518.640825223	3.0
6.2464	518.75446849	1.0
6.2566	518.867576843	2.0
6.2669	518.981253858	3.0
6.2771	519.09329474	1.0
6.2874	519.205898919	3.0
6.2976	519.316882407	3.0
6.3078	519.4273435	1.0
6.3181	519.538359946	1.0
6.3283	519.647778553	6.0
6.3386	519.757747272	1.0
6.3488	519.866133232	2.0
6.359	519.974009023	2.0
6.3693	520.08242717	2.0
6.3795	520.189284875	3.0
6.3898	520.296679816	0.0
6.4	520.402529042	1.0
6.4102	520.507880041	1.0
6.4205	520.6137607	1.0
6.4307	520.71811744	3.0
6.441	520.822998842	2.0
6.4512	520.926370706	4.0
6.4614	521.029256003	1.0
6.4717	521.132658564	1.0
6.4819	521.234572872	3.0
6.4922	521.336999564	0.0
6.5024	521.437952047	0.0
6.5126	521.538429351	1.0
6.5229	521.639411814	1.0
6.5331	521.738940855	3.0
6.5434	521.838970287	0.0
6.5536	521.937560015	1.0
6.5638	522.035685684	4.0
6.5741	522.134304689	1.0
6.5843	522.23150429	2.0
6.5946	522.32919257	1.0
6.6048	522.425474841	1.0
6.615	522.521303915	0.0
6.6253	522.617614779	1.0
6.6355	522.712539458	2.0
6.6458	522.80794138	0.0
6.656	522.901970199	0.0
6.6662	522.995556429	0.0
6.6765	523.089613172	2.0
6.6867	523.182316174	0.0
6.697	523.275485249	1.0
6.7072	523.367313359	1.0
6.7174	523.458709237	1.0
6.7277	523.550564617	2.0
6.7379	523.641097939	0.0
6.7482	523.732086425	0.0
6.7584	523.821765332	2.0
6.7686	523.911022123	3.0
6.7789	524.000727661	1.0
6.7891	524.089142084	0.0
6.7994	524.178001019	1.0
6.8096	524.265581023	0.0
6.8198	524.352748792	2.0
6.8301	524.440354805	0.0
6.8403	524.526699921	0.0
6.8506	524.613479144	0.0
6.8608	524.699009371	1.0
6.871	524.78413701	1.0
6.8813	524.869692636	1.0
6.8915	524.954016876	1.0
6.9018	525.038765064	2.0
6.912	525.122293487	1.0
6.9222	525.205428745	1.0
6.9325	525.288981973	3.0
6.9427	525.371332635	1.0
6.953	525.454097323	0.0
6.9632	525.535670794	1.0
6.9734	525.616860302	0.0
6.9837	525.698457997	1.0
6.9939	525.778881272	0.0
7.0042	525.859708882	0.0
7.0144	525.939373156	0.0
7.0246	526.018662453	0.0
7.0349	526.098350384	1.0
7.0451	526.176891382	1.0
7.0554	526.255827252	3.0
7.0656	526.333627013	0.0
7.0758	526.411060573	0.0
7.0861	526.488883437	1.0
7.0963	526.565586212	2.0
7.1066	526.642674616	0.0
7.1168	526.718653502	2.0
7.127	526.794274758	0.0
7.1373	526.870276207	0.0
7.1475	526.945183781	0.0
7.1578	527.02046796	1.0
7.168	527.094668588	1.0
7.1782	527.168519956	1.0
7.1885	527.242742619	0.0
7.1987	527.315897009	1.0
7.209	527.389419189	0.0
7.2192	527.461883178	0.0
7.2294	527.534006082	1.0
7.2397	527.606491591	0.0
7.2499	527.677933829	0.0
7.2602	527.749735249	0.0
7.2704	527.820503246	0.0
7.2806	527.89093814	0.0
7.2909	527.961727151	0.0
7.3011	528.03149731	0.0
7.3114	528.101618245	0.0
7.3216	528.170729942	1.0
7.3318	528.239516333	1.0
7.3421	528.308648554	2.0
7.3523	528.376785768	0.0
7.3626	528.445265547	2.0
7.3728	528.512759711	1.0
7.383	528.579936181	1.0
7.3933	528.647450388	0.0
7.4035	528.713992875	0.0
7.4138	528.780869911	0.0
7.424	528.846784398	2.0
7.4342	528.912388628	0.0
7.4445	528.97832269	0.0
7.4547	529.043307774	1.0
7.465	529.108619577	3.0
7.4752	529.17299136	1.0
7.4854	529.237060147	0.0
7.4957	529.301451046	0.0
7.5059	529.364915179	2.0
7.5162	529.428698383	0.0
7.5264	529.491563568	0.0
7.5366	529.554132849	1.0
7.5469	529.617016702	1.0
7.5571	529.67899548	1.0
7.5674	529.741285862	0.0
7.5776	529.80267971	0.0
7.5878	529.863784579	0.0
7.5981	529.925196659	2.0
7.6083	529.985724847	0.0
7.6186	530.046557345	1.0
7.6288	530.106514292	1.0
7.639	530.166189025	0.0
7.6493	530.226163778	0.0
7.6595	530.285275325	0.0
7.6698	530.344684061	2.0
7.68	530.403237738	2.0
7.6902	530.461515805	0.0
7.7005	530.520086871	1.0
7.7107	530.577814934	0.0
7.721	530.63583323	1.0
7.7312	530.69301648	0.0
7.7414	530.749930571	0.0
7.7517	530.807130802	1.0
7.7619	530.863507761	1.0
7.7722	530.92016816	1.0
7.7824	530.976013057	1.0
7.7926	531.031595094	0.0
7.8029	531.087456575	0.0
7.8131	531.142514052	0.0
7.8234	531.197848336	0.0
7.8336	531.252386203	0.0
7.8438	531.306667363	1.0
7.8541	531.361221426	0.0
7.8643	531.414990303	0.0
7.8746	531.469029508	1.0
7.8848	531.522290937	0.0
7.895	531.575301666	4.0
7.9053	531.628578911	1.0
7.9155	531.681089347	1.0
7.9258	531.733863784	1.0
7.936	531.785878649	0.0
7.9462	531.837648681	0.0
7.9565	531.889678993	0.0
7.9667	531.940960441	0.0
7.977	531.992499712	1.0
7.9872	532.043297187	0.0
7.9974	532.093855561	0.0
8.0077	532.144668122	0.0
8.0179	532.194749347	0.0
8.0282	532.24508236	0.0
8.0384	532.294690939	0.0
