TL-DOS Lehrstuhlversuch
detector=R1406904
job_number=2015-10-16-001
irradiation_dose [mSv]=1.0

[BEGIN DATA]
time [sec] 	 temperature [K] 	 photoncount 
0.0	111.643136605	0.0
0.0102	113.674510731	1.0
0.0205	115.716163422	1.0
0.0307	117.728495697	3.0
0.041	119.751010185	1.0
0.0512	121.744479104	2.0
0.0614	123.728628335	2.0
0.0717	125.722817176	0.0
0.0819	127.688367235	0.0
0.0922	129.663862794	0.0
0.1024	131.610988028	1.0
0.1126	133.549010236	0.0
0.1229	135.496838656	0.0
0.1331	137.416694081	2.0
0.1434	139.346263796	1.0
0.1536	141.248122732	3.0
0.1638	143.141090267	0.0
0.1741	145.043636041	2.0
0.1843	146.91885913	0.0
0.1946	148.803570674	0.0
0.2048	150.661215651	1.0
0.215	152.510175933	3.0
0.2253	154.368491782	3.0
0.2355	156.200120137	0.0
0.2458	158.041016361	0.0
0.256	159.855475256	0.0
0.2662	161.661451355	1.0
0.2765	163.476565525	1.0
0.2867	165.265612626	2.0
0.297	167.063712138	0.0
0.3072	168.83598893	0.0
0.3174	170.599980132	0.0
0.3277	172.372896966	0.0
0.3379	174.12035273	0.0
0.3482	175.876650459	0.0
0.3584	177.607725788	0.0
0.3686	179.330708148	0.0
0.3789	181.062408638	0.0
0.3891	182.769239972	0.0
0.3994	184.484707715	0.0
0.4096	186.175539421	0.0
0.4198	187.858466303	0.0
0.4301	189.549908638	0.0
0.4403	191.217059969	0.0
0.4506	192.89264693	0.0
0.4608	194.54417059	0.0
0.471	196.187973192	0.0
0.4813	197.840093284	0.0
0.4915	199.468487083	1.0
0.5018	201.105120403	0.0
0.512	202.718249838	0.0
0.5222	204.323837714	0.0
0.5325	205.937549716	0.0
0.5427	207.528087008	2.0
0.553	209.126672271	0.0
0.5632	210.702300062	0.0
0.5734	212.270561619	0.0
0.5837	213.846758433	0.0
0.5939	215.400319298	0.0
0.6042	216.961741036	0.0
0.6144	218.500739012	0.0
0.6246	220.032542002	1.0
0.6349	221.572095773	0.0
0.6451	223.089539829	0.0
0.6554	224.614662012	0.0
0.6656	226.117881734	0.0
0.6758	227.614073737	0.0
0.6861	229.117836333	0.0
0.6963	230.600003216	0.0
0.7066	232.089669725	0.0
0.7168	233.557942958	0.0
0.727	235.01935185	0.0
0.7373	236.488155335	0.0
0.7475	237.93586516	0.0
0.7578	239.390900262	0.0
0.768	240.825039432	0.0
0.7782	242.252473843	0.0
0.7885	243.687130939	0.0
0.7987	245.101184754	0.0
0.809	246.522393551	0.0
0.8192	247.9231922	0.0
0.8294	249.317441959	0.0
0.8397	250.718746493	0.0
0.8499	252.099926726	1.0
0.8602	253.488095603	0.0
0.8704	254.856328823	1.0
0.8806	256.2181654	0.0
0.8909	257.586892744	0.0
0.9011	258.935963632	0.0
0.9114	260.291860694	0.0
0.9216	261.628285557	1.0
0.9318	262.958462486	0.0
0.9421	264.295369987	1.0
0.9523	265.613078001	0.0
0.9626	266.937453494	0.0
0.9728	268.242809475	0.0
0.983	269.542062771	0.0
0.9933	270.847890168	1.0
1.0035	272.134964424	0.0
1.0138	273.428551155	0.0
1.024	274.703560534	0.0
1.0342	275.972609104	0.0
1.0445	277.24807894	0.0
1.0547	278.505231604	0.0
1.065	279.768745343	0.0
1.0752	281.014113611	0.0
1.0854	282.253659645	1.0
1.0957	283.499477667	0.0
1.1059	284.727404348	0.0
1.1162	285.961544224	1.0
1.1264	287.177960472	0.0
1.1366	288.388689838	0.0
1.1469	289.605545383	0.0
1.1571	290.804925521	0.0
1.1674	292.010374411	1.0
1.1776	293.198511706	0.0
1.1878	294.381094328	2.0
1.1981	295.569660709	0.0
1.2083	296.741157946	0.0
1.2186	297.918582851	1.0
1.2288	299.079098617	0.0
1.239	300.234188844	1.0
1.2493	301.395123719	0.0
1.2595	302.539386272	2.0
1.2698	303.689438686	0.0
1.28	304.822975062	0.0
1.2902	305.951212029	0.0
1.3005	307.08515777	2.0
1.3107	308.202818783	1.0
1.321	309.326135056	0.0
1.3312	310.433319251	0.0
1.3414	311.535327238	0.0
1.3517	312.642911282	0.0
1.3619	313.734589181	1.0
1.3722	314.831790868	1.0
1.3824	315.913235512	0.0
1.3926	316.989624282	1.0
1.4029	318.07145948	0.0
1.4131	319.137758314	0.0
1.4234	320.209452521	1.0
1.4336	321.265756	1.0
1.4438	322.317121144	2.0
1.4541	323.373806097	2.0
1.4643	324.415315873	0.0
1.4746	325.462095592	0.0
1.4848	326.493842383	2.0
1.495	327.520765643	4.0
1.5053	328.55288504	3.0
1.5155	329.570182047	1.0
1.5258	330.592626483	5.0
1.536	331.600387474	3.0
1.5462	332.60343707	3.0
1.5565	333.611562003	4.0
1.5667	334.605209135	0.0
1.577	335.603884029	3.0
1.5872	336.588216835	2.0
1.5974	337.567947776	7.0
1.6077	338.552636064	5.0
1.6179	339.523183127	4.0
1.6282	340.498641068	5.0
1.6384	341.460090343	3.0
1.6486	342.417044735	2.0
1.6589	343.378841227	4.0
1.6691	344.326825246	7.0
1.6794	345.279605976	4.0
1.6896	346.218703709	6.0
1.6998	347.153411056	12.0
1.7101	348.092847936	8.0
1.7203	349.018793451	9.0
1.7306	349.949424164	11.0
1.7408	350.866689979	7.0
1.751	351.779667475	12.0
1.7613	352.697264553	12.0
1.7715	353.60168391	14.0
1.7818	354.510679544	15.0
1.792	355.406620985	12.0
1.8022	356.298373801	9.0
1.8125	357.194638802	21.0
1.8227	358.078032436	12.0
1.833	358.96589596	22.0
1.8432	359.84100877	21.0
1.8534	360.712030331	18.0
1.8637	361.58745918	32.0
1.8739	362.450315891	19.0
1.8842	363.317538578	24.0
1.8944	364.172306976	27.0
1.9046	365.023079238	26.0
1.9149	365.878156328	39.0
1.9251	366.720953555	33.0
1.9354	367.568015257	27.0
1.9456	368.402912206	28.0
1.9558	369.23390592	36.0
1.9661	370.069104384	42.0
1.9763	370.892308464	36.0
1.9866	371.71967788	53.0
1.9968	372.535165346	40.0
2.007	373.346840318	48.0
2.0173	374.162622289	58.0
2.0275	374.96668872	59.0
2.0378	375.774823651	56.0
2.048	376.571352861	69.0
2.0582	377.364158209	59.0
2.0685	378.160975078	69.0
2.0787	378.946348765	60.0
2.089	379.735696371	75.0
2.0992	380.513708062	79.0
2.1094	381.288082462	78.0
2.1197	382.066375124	84.0
2.1299	382.833490634	111.0
2.1402	383.604487676	97.0
2.1504	384.364412339	102.0
2.1606	385.12078427	114.0
2.1709	385.880983372	114.0
2.1811	386.630265165	111.0
2.1914	387.383338254	115.0
2.2016	388.125596372	143.0
2.2118	388.86438435	124.0
2.2221	389.606910527	101.0
2.2323	390.338773198	152.0
2.2426	391.074339025	138.0
2.2528	391.799341305	169.0
2.263	392.520954119	145.0
2.2733	393.246218226	158.0
2.2835	393.96106673	134.0
2.2938	394.6795323	161.0
2.304	395.387679902	161.0
2.3142	396.092516835	186.0
2.3245	396.800920177	209.0
2.3347	397.499150055	191.0
2.345	398.200912911	172.0
2.3552	398.892597668	188.0
2.3654	399.581048722	211.0
2.3757	400.272983274	187.0
2.3859	400.954980872	187.0
2.3962	401.640429314	207.0
2.4064	402.316033951	194.0
2.4166	402.98848006	180.0
2.4269	403.664328685	190.0
2.4371	404.330471367	197.0
2.4474	404.99998467	169.0
2.4576	405.659883012	222.0
2.4678	406.316696257	185.0
2.4781	406.976832916	203.0
2.4883	407.627489274	195.0
2.4986	408.281437892	199.0
2.5088	408.925995077	189.0
2.519	409.567538886	177.0
2.5293	410.212328847	157.0
2.5395	410.847858902	172.0
2.5498	411.486604681	156.0
2.56	412.116177356	157.0
2.5702	412.742806709	166.0
2.5805	413.372606748	143.0
2.5907	413.993362154	148.0
2.601	414.617258525	153.0
2.6112	415.232195047	124.0
2.6214	415.844256671	109.0
2.6317	416.459415271	143.0
2.6419	417.065739505	126.0
2.6522	417.675131684	98.0
2.6624	418.275772309	109.0
2.6726	418.873604873	121.0
2.6829	419.474462414	109.0
2.6931	420.066690968	115.0
2.7034	420.661916144	105.0
2.7136	421.248593221	83.0
2.7238	421.832527517	104.0
2.7341	422.419416467	93.0
2.7443	422.997877035	102.0
2.7546	423.57926456	103.0
2.7648	424.152302709	96.0
2.775	424.722661842	81.0
2.7853	425.295906939	98.0
2.7955	425.860919595	86.0
2.8058	426.428791163	85.0
2.816	426.988507459	109.0
2.8262	427.54560702	90.0
2.8365	428.105525453	94.0
2.8467	428.657402832	99.0
2.857	429.212072658	81.0
2.8672	429.758776805	92.0
2.8774	430.30292505	102.0
2.8877	430.849826634	123.0
2.8979	431.3888741	105.0
2.9082	431.930649096	140.0
2.9184	432.464643597	111.0
2.9286	432.996141615	134.0
2.9389	433.530328963	117.0
2.9491	434.056844783	122.0
2.9594	434.586024725	131.0
2.9696	435.10760505	131.0
2.9798	435.62674693	130.0
2.9901	436.14851562	143.0
3.0003	436.662791127	173.0
3.0106	437.179668821	129.0
3.0208	437.689123573	137.0
3.031	438.196196567	155.0
3.0413	438.705835304	158.0
3.0515	439.208155059	151.0
3.0618	439.713016504	165.0
3.072	440.210627575	167.0
3.0822	440.705912259	150.0
3.0925	441.203703037	183.0
3.1027	441.694344983	177.0
3.113	442.187469532	172.0
3.1232	442.67351226	163.0
3.1334	443.157282685	158.0
3.1437	443.643500944	166.0
3.1539	444.122736564	192.0
3.1642	444.604397072	175.0
3.1744	445.079140396	181.0
3.1846	445.551664243	188.0
3.1949	446.026579016	189.0
3.2051	446.494673483	191.0
3.2154	446.965136463	151.0
3.2256	447.428843069	181.0
3.2358	447.890381795	165.0
3.2461	448.354255865	166.0
3.2563	448.811468184	190.0
3.2666	449.270993954	198.0
3.2768	449.723920421	183.0
3.287	450.174729406	191.0
3.2973	450.627819443	182.0
3.3075	451.0744026	163.0
3.3178	451.523245426	164.0
3.328	451.965642368	189.0
3.3382	452.405971054	180.0
3.3485	452.848527763	204.0
3.3587	453.284728862	178.0
3.369	453.723137099	168.0
3.3792	454.155249303	191.0
3.3894	454.585341334	159.0
3.3997	455.017609592	156.0
3.4099	455.443669993	164.0
3.4202	455.871886221	180.0
3.4304	456.293952784	171.0
3.4406	456.71404614	149.0
3.4509	457.136265129	172.0
3.4611	457.552420581	148.0
3.4714	457.970681741	169.0
3.4816	458.382936202	159.0
3.4918	458.793263329	164.0
3.5021	459.205666673	147.0
3.5123	459.612147443	150.0
3.5226	460.020684968	160.0
3.5328	460.423355438	128.0
3.543	460.824143378	140.0
3.5533	461.226959269	154.0
3.5635	461.623990272	164.0
3.5738	462.023030215	157.0
3.584	462.416339499	151.0
3.5942	462.807810018	141.0
3.6045	463.201261341	146.0
3.6147	463.589062264	160.0
3.625	463.978825423	141.0
3.6352	464.362991147	129.0
3.6454	464.745360854	159.0
3.6557	465.129665316	138.0
3.6659	465.508450736	142.0
3.6762	465.889152775	137.0
3.6864	466.264387507	174.0
3.6966	466.637867975	145.0
3.7069	467.013238219	160.0
3.7171	467.383217727	151.0
3.7274	467.755069297	129.0
3.7376	468.121580663	138.0
3.7478	468.486378547	145.0
3.7581	468.853022274	135.0
3.7683	469.214400588	136.0
3.7786	469.577607442	170.0
3.7888	469.93559824	148.0
3.799	470.291915391	133.0
3.8093	470.650035473	151.0
3.8195	471.003012551	152.0
3.8298	471.35777566	166.0
3.84	471.707443973	129.0
3.8502	472.055477549	147.0
3.8605	472.405272142	160.0
3.8707	472.750043294	132.0
3.881	473.096558956	150.0
3.8912	473.438098265	156.0
3.9014	473.77804084	159.0
3.9117	474.119703493	161.0
3.9219	474.456459488	127.0
3.9322	474.794919437	148.0
3.9424	475.128518722	132.0
3.9526	475.460558394	150.0
3.9629	475.794278156	141.0
3.9731	476.123205329	137.0
3.9834	476.453796843	121.0
3.9936	476.779640693	152.0
4.0038	477.103961186	145.0
4.0141	477.429922712	137.0
4.0243	477.751203065	158.0
4.0346	478.074109067	145.0
4.0448	478.392377777	138.0
4.055	478.709158547	135.0
4.0653	479.027542197	139.0
4.0755	479.341353502	142.0
4.0858	479.656752663	142.0
4.096	479.967622339	143.0
4.1062	480.277038665	137.0
4.1165	480.588020609	107.0
4.1267	480.894536505	138.0
4.137	481.202603342	126.0
4.1472	481.506245995	98.0
4.1574	481.808469085	141.0
4.1677	482.112221396	144.0
4.1779	482.411611484	120.0
4.1882	482.712516458	120.0
4.1984	483.0091001	137.0
4.2086	483.30429718	125.0
4.2189	483.60098793	125.0
4.2291	483.89341787	116.0
4.2394	484.187327477	130.0
4.2496	484.477016214	131.0
4.2598	484.765350624	133.0
4.2701	485.055143979	123.0
4.2803	485.340775578	122.0
4.2906	485.627852446	124.0
4.3008	485.910806569	128.0
4.311	486.19243785	127.0
4.3213	486.475494159	109.0
4.3315	486.754485463	119.0
4.3418	487.034888437	119.0
4.352	487.311264511	123.0
4.3622	487.586348496	119.0
4.3725	487.86282438	118.0
4.3827	488.135329761	137.0
4.393	488.409213995	111.0
4.4032	488.679164944	103.0
4.4134	488.947853843	107.0
4.4237	489.217902283	123.0
4.4339	489.484072525	100.0
4.4442	489.751589563	103.0
4.4544	490.015264758	104.0
4.4646	490.277707242	130.0
4.4749	490.541477661	119.0
4.4851	490.801460041	116.0
4.4954	491.062757908	103.0
4.5056	491.320303246	112.0
4.5158	491.57664453	117.0
4.5261	491.834282878	129.0
4.5363	492.08822125	133.0
4.5466	492.343444528	118.0
4.5568	492.595002513	115.0
4.567	492.845384437	128.0
4.5773	493.097033271	96.0
4.5875	493.345068145	114.0
4.5978	493.594358053	125.0
4.608	493.840067879	117.0
4.6182	494.084628985	113.0
4.6285	494.330427547	123.0
4.6387	494.572696166	117.0
4.649	494.816190643	120.0
4.6592	495.056188266	96.0
4.6694	495.295063874	120.0
4.6797	495.53514817	121.0
4.6899	495.771784587	111.0
4.7002	496.009618363	131.0
4.7104	496.244036579	110.0
4.7206	496.477358865	108.0
4.7309	496.711861739	106.0
4.7411	496.94299689	108.0
4.7514	497.175301563	120.0
4.7616	497.404270081	141.0
4.7718	497.632168147	116.0
4.7821	497.861219355	110.0
4.7923	498.086981131	113.0
4.8026	498.313885241	119.0
4.8128	498.537530755	125.0
4.823	498.760130701	106.0
4.8333	498.983856981	113.0
4.8435	499.204370303	115.0
4.8538	499.425999401	128.0
4.864	499.644445657	116.0
4.8742	499.861870653	113.0
4.8845	500.080395799	111.0
4.8947	500.29578268	107.0
4.905	500.512259398	149.0
4.9152	500.725627269	128.0
4.9254	500.937997621	119.0
4.9357	501.151442547	109.0
4.9459	501.361822165	113.0
4.9562	501.573266285	106.0
4.9664	501.781673831	106.0
4.9766	501.989107048	99.0
4.9869	502.197589858	102.0
4.9971	502.403078622	103.0
5.0074	502.60960714	109.0
5.0176	502.813169677	100.0
5.0278	503.015780537	107.0
5.0381	503.219416589	93.0
5.0483	503.4201282	94.0
5.0586	503.621855392	87.0
5.0688	503.820685557	86.0
5.079	504.018586168	108.0
5.0893	504.217488138	92.0
5.0995	504.413533654	104.0
5.1098	504.610571141	83.0
5.12	504.80477895	96.0
5.1302	504.998078816	109.0
5.1405	505.192356761	85.0
5.1507	505.383844657	78.0
5.161	505.576301465	107.0
5.1712	505.765994377	93.0
5.1814	505.954800454	79.0
5.1917	506.144561873	100.0
5.2019	506.331598105	102.0
5.2122	506.519580723	90.0
5.2224	506.7048637	104.0
5.2326	506.889280459	70.0
5.2429	507.07463035	86.0
5.2531	507.257318409	77.0
5.2634	507.440930852	72.0
5.2736	507.621906415	92.0
5.2838	507.802035898	64.0
5.2941	507.983076819	66.0
5.3043	508.16151779	76.0
5.3146	508.340861655	64.0
5.3248	508.517629943	73.0
5.335	508.693571818	63.0
5.3453	508.870403944	70.0
5.3555	509.044696562	74.0
5.3658	509.219871085	63.0
5.376	509.392529905	70.0
5.3862	509.564381527	71.0
5.3965	509.737102701	58.0
5.4067	509.907343407	53.0
5.417	510.078445514	46.0
5.4272	510.247090404	59.0
5.4374	510.414946861	54.0
5.4477	510.583652655	46.0
5.4579	510.749935646	60.0
5.4682	510.917060013	56.0
5.4784	511.081784287	57.0
5.4886	511.245738457	58.0
5.4989	511.41052222	39.0
5.5091	511.572939504	57.0
5.5194	511.736178604	48.0
5.5296	511.897073408	44.0
5.5398	512.057216011	50.0
5.5501	512.21816892	32.0
5.5603	512.376810366	41.0
5.5706	512.536254523	48.0
5.5808	512.693408884	37.0
5.591	512.84982853	34.0
5.6013	513.007039645	27.0
5.6115	513.161993033	42.0
5.6218	513.31773047	31.0
5.632	513.471231344	28.0
5.6422	513.624014584	21.0
5.6525	513.777570893	33.0
5.6627	513.928921962	24.0
5.673	514.081038853	26.0
5.6832	514.230971176	23.0
5.6934	514.380202548	27.0
5.7037	514.530189017	18.0
5.7139	514.678021512	24.0
5.7242	514.826602027	25.0
5.7344	514.973048759	33.0
5.7446	515.118810836	25.0
5.7549	515.265310456	29.0
5.7651	515.409706177	21.0
5.7754	515.554832527	25.0
5.7856	515.697874701	17.0
5.7958	515.840248137	18.0
5.8061	515.983341969	19.0
5.8163	516.124380813	14.0
5.8266	516.266133301	14.0
5.8368	516.405850065	21.0
5.847	516.544913637	18.0
5.8573	516.684680858	12.0
5.8675	516.822440865	14.0
5.8778	516.960897926	19.0
5.888	517.097366588	10.0
5.8982	517.233197244	20.0
5.9085	517.36971519	10.0
5.9187	517.504272586	8.0
5.929	517.63951083	12.0
5.9392	517.772806901	14.0
5.9494	517.905479799	6.0
5.9597	518.038824009	9.0
5.9699	518.170253247	7.0
5.9802	518.302347505	9.0
5.9904	518.432544741	6.0
6.0006	518.562133291	13.0
6.0109	518.692377547	11.0
6.0211	518.82075135	7.0
6.0314	518.949774713	4.0
6.0416	519.076945155	4.0
6.0518	519.203521062	10.0
6.0621	519.330737431	6.0
6.0723	519.45612683	7.0
6.0826	519.582150689	7.0
6.0928	519.706364704	9.0
6.103	519.829998004	4.0
6.1133	519.954256877	3.0
6.1235	520.076731255	0.0
6.1338	520.199825341	9.0
6.144	520.321151658	9.0
6.1542	520.441910761	2.0
6.1645	520.563280894	1.0
6.1747	520.682908017	3.0
6.185	520.803140441	3.0
6.1952	520.921646194	6.0
6.2054	521.039597918	4.0
6.2157	521.158146468	4.0
6.2259	521.274992528	4.0
6.2362	521.392429818	1.0
6.2464	521.508180577	1.0
6.2566	521.623390188	4.0
6.2669	521.73918275	6.0
6.2771	521.853312401	4.0
6.2874	521.968019537	3.0
6.2976	522.08107935	1.0
6.3078	522.193610597	1.0
6.3181	522.30671124	1.0
6.3283	522.418187633	0.0
6.3386	522.530228085	1.0
6.3488	522.640659511	2.0
6.359	522.750574658	3.0
6.3693	522.861045966	5.0
6.3795	522.969930781	5.0
6.3898	523.079366544	3.0
6.4	523.187230687	3.0
6.4102	523.294590554	0.0
6.4205	523.402493651	2.0
6.4307	523.508847139	0.0
6.441	523.615738765	0.0
6.4512	523.721095309	3.0
6.4614	523.825959298	1.0
6.4717	523.93135389	2.0
6.4819	524.035234898	1.0
6.4922	524.139641534	4.0
6.5024	524.242548774	0.0
6.5126	524.344974911	2.0
6.5229	524.447919315	4.0
6.5331	524.549385322	1.0
6.5434	524.651364738	1.0
6.5536	524.751879615	0.0
6.5638	524.851924574	2.0
6.5741	524.952475751	1.0
6.5843	525.051582901	2.0
6.5946	525.151191523	2.0
6.6048	525.249369655	3.0
6.615	525.347088793	2.0
6.6253	525.44530238	2.0
6.6355	525.542105511	2.0
6.6458	525.639398457	2.0
6.656	525.735294167	1.0
6.6662	525.830741554	3.0
6.6765	525.926671895	2.0
6.6867	526.02122457	4.0
6.697	526.116255673	0.0
6.7072	526.209922022	3.0
6.7174	526.303150472	2.0
6.7277	526.396850648	2.0
6.7379	526.489205185	2.0
6.7482	526.582027027	0.0
6.7584	526.673515844	2.0
6.7686	526.764576941	0.0
6.7789	526.856098798	5.0
6.7891	526.946306299	2.0
6.7994	527.036970242	1.0
6.8096	527.126332149	0.0
6.8198	527.215276279	0.0
6.8301	527.304670458	0.0
6.8403	527.392780837	0.0
6.8506	527.481337046	2.0
6.8608	527.568621489	2.0
6.871	527.655497867	1.0
6.8813	527.742813832	2.0
6.8915	527.828875842	2.0
6.9018	527.915373318	0.0
6.912	528.000628593	2.0
6.9222	528.085485291	1.0
6.9325	528.170771355	1.0
6.9427	528.254832616	0.0
6.953	528.339319219	0.0
6.9632	528.4225925	0.0
6.9734	528.50547647	1.0
6.9837	528.588779824	3.0
6.9939	528.670886849	0.0
7.0042	528.753409329	0.0
7.0144	528.834746693	1.0
7.0246	528.915703795	0.0
7.0349	528.997070534	2.0
7.0451	529.077268754	1.0
7.0554	529.157872771	1.0
7.0656	529.237319223	2.0
7.0758	529.316394255	2.0
7.0861	529.395869399	1.0
7.0963	529.474203191	0.0
7.1066	529.552933344	3.0
7.1168	529.630532845	2.0
7.127	529.707769559	2.0
7.1373	529.785397084	0.0
7.1475	529.861909791	0.0
7.1578	529.938809645	1.0
7.168	530.014605131	2.0
7.1782	530.090046265	1.0
7.1885	530.165869124	1.0
7.1987	530.240603082	4.0
7.209	530.315715186	1.0
7.2192	530.389748597	0.0
7.2294	530.463435894	1.0
7.2397	530.537496041	2.0
7.2499	530.610492602	2.0
7.2602	530.683858519	0.0
7.2704	530.756170819	0.0
7.2806	530.828145051	0.0
7.2909	530.900483466	2.0
7.3011	530.97178302	1.0
7.3114	531.043443344	0.0
7.3216	531.114074545	0.0
7.3318	531.184375537	1.0
7.3421	531.255032246	1.0
7.3523	531.324674245	2.0
7.3626	531.394668627	3.0
7.3728	531.463657811	1.0
7.383	531.532324463	1.0
7.3933	531.601338562	2.0
7.4035	531.669361541	4.0
7.4138	531.73772871	0.0
7.424	531.80511405	1.0
7.4342	531.872184356	1.0
7.4445	531.939594032	0.0
7.4547	532.006035629	1.0
7.465	532.072813415	0.0
7.4752	532.138632197	2.0
7.4854	532.204143268	1.0
7.4957	532.26998582	0.0
7.5059	532.334882799	1.0
7.5162	532.400108151	1.0
7.5264	532.464396794	1.0
7.5366	532.52838488	2.0
7.5469	532.59269674	0.0
7.5571	532.65608501	1.0
7.5674	532.719794018	1.0
7.5776	532.782588094	0.0
7.5878	532.845088601	2.0
7.5981	532.907905354	0.0
7.6083	532.969819988	4.0
7.6186	533.032047905	0.0
7.6288	533.09338216	1.0
7.639	533.15442967	1.0
7.6493	533.215786074	0.0
7.6595	533.276261332	1.0
7.6698	533.337042589	0.0
7.68	533.39695096	1.0
7.6902	533.456579252	1.0
7.7005	533.516509258	1.0
7.7107	533.575578601	0.0
7.721	533.634946831	0.0
7.7312	533.693462466	0.0
7.7414	533.751704534	0.0
7.7517	533.810241301	0.0
7.7619	533.867937415	1.0
7.7722	533.925925466	2.0
7.7824	533.983080744	0.0
7.7926	534.039968814	2.0
7.8029	534.097144733	1.0
7.8131	534.153499541	0.0
7.8234	534.2101395	0.0
7.8336	534.265966046	2.0
7.8438	534.321531596	1.0
7.8541	534.377378303	1.0
7.8643	534.432422988	0.0
7.8746	534.487746195	0.0
7.8848	534.542274898	0.0
7.895	534.596548674	2.0
7.9053	534.65109707	0.0
7.9155	534.70486209	0.0
