TL-DOS Lehrstuhlversuch
detector=R1408305
job_number=2015-10-21-013
irradiation_dose [mSv]=3.0

[BEGIN DATA]
time [sec] 	 temperature [K] 	 photoncount 
0.0	88.4362699115	0.0
0.0102	90.6530132485	0.0
0.0205	92.8805425169	1.0
0.0307	95.0756576491	1.0
0.041	97.281453477	0.0
0.0512	99.4551514253	1.0
0.0614	101.618270998	1.0
0.0717	103.791915587	1.0
0.0819	105.933930148	3.0
0.0922	108.086367036	2.0
0.1024	110.207482502	2.0
0.1126	112.318275488	1.0
0.1229	114.439338886	1.0
0.1331	116.529537397	0.0
0.1434	118.629906115	2.0
0.1536	120.699711087	2.0
0.1638	122.759443283	3.0
0.1741	124.829197447	0.0
0.1843	126.868833355	2.0
0.1946	128.91839345	1.0
0.2048	130.938129147	1.0
0.215	132.94803573	1.0
0.2253	134.967721847	1.0
0.2355	136.95801828	1.0
0.2458	138.957998829	1.0
0.256	140.928876442	1.0
0.2662	142.890162712	0.0
0.2765	144.860991944	1.0
0.2867	146.80314244	0.0
0.297	148.754742789	0.0
0.3072	150.677944212	1.0
0.3174	152.59178631	0.0
0.3277	154.514940523	0.0
0.3379	156.410109747	0.0
0.3482	158.31450023	0.0
0.3584	160.191178766	0.0
0.3686	162.058724382	0.0
0.3789	163.93535685	0.0
0.3891	165.784681295	2.0
0.3994	167.643003934	0.0
0.4096	169.474284987	0.0
0.4198	171.296654049	0.0
0.4301	173.127890149	0.0
0.4403	174.932478816	0.0
0.4506	176.745848007	0.0
0.4608	178.532829758	1.0
0.471	180.311115102	0.0
0.4813	182.098052987	0.0
0.4915	183.858988049	0.0
0.5018	185.628491232	0.0
0.512	187.372245296	0.0
0.5222	189.107513321	1.0
0.5325	190.851224579	0.0
0.5427	192.569562032	0.0
0.553	194.29626034	0.0
0.5632	195.997832409	0.0
0.5734	197.691123719	1.0
0.5837	199.392654017	0.0
0.5939	201.069424312	0.0
0.6042	202.754353209	0.0
0.6144	204.414763679	0.0
0.6246	206.067093705	0.0
0.6349	207.727463415	0.0
0.6451	209.363672074	0.0
0.6554	211.007841977	0.0
0.6656	212.628086561	0.0
0.6758	214.24044617	1.0
0.6861	215.860650981	0.0
0.6963	217.457279204	0.0
0.7066	219.061676085	0.0
0.7168	220.64272641	0.0
0.727	222.216082499	0.0
0.7373	223.797094013	0.0
0.7475	225.355099264	0.0
0.7578	226.920685248	0.0
0.768	228.463489435	0.0
0.7782	229.998785514	1.0
0.7885	231.541551829	0.0
0.7987	233.061868411	0.0
0.809	234.589582345	0.0
0.8192	236.095065582	0.0
0.8294	237.593222333	0.0
0.8397	239.098668614	0.0
0.8499	240.582208229	0.0
0.8602	242.072966251	1.0
0.8704	243.542031344	1.0
0.8806	245.003947182	0.0
0.8909	246.472976213	3.0
0.9011	247.920628507	0.0
0.9114	249.375324592	0.0
0.9216	250.808852509	0.0
0.9318	252.235404112	0.0
0.9421	253.668896839	0.0
0.9523	255.081529939	0.0
0.9626	256.501036439	0.0
0.9728	257.899886834	0.0
0.983	259.291929676	0.0
0.9933	260.690745733	1.0
1.0035	262.069206765	0.0
1.0138	263.454374927	0.0
1.024	264.819386663	1.0
1.0342	266.177755522	1.0
1.0445	267.54273375	0.0
1.0547	268.887849347	0.0
1.065	270.239509827	0.0
1.0752	271.571501472	2.0
1.0854	272.897010933	0.0
1.0957	274.22896988	0.0
1.1059	275.54154668	1.0
1.1162	276.86051004	2.0
1.1264	278.16028036	0.0
1.1366	279.453725304	0.0
1.1469	280.753463717	2.0
1.1571	282.034288845	0.0
1.1674	283.321346039	0.0
1.1776	284.58967448	0.0
1.1878	285.851830557	1.0
1.1981	287.120127862	0.0
1.2083	288.369969401	2.0
1.2186	289.625892251	2.0
1.2288	290.863539401	1.0
1.239	292.095163499	0.0
1.2493	293.332780268	1.0
1.2595	294.552387721	1.0
1.2698	295.777929376	2.0
1.28	296.985637427	2.0
1.2902	298.187468126	2.0
1.3005	299.39514653	5.0
1.3107	300.58525127	2.0
1.321	301.781146662	0.0
1.3312	302.95963985	2.0
1.3414	304.132397861	3.0
1.3517	305.310862121	2.0
1.3619	306.472177828	2.0
1.3722	307.639144109	5.0
1.3824	308.789129153	2.0
1.3926	309.933517755	3.0
1.4029	311.083474568	4.0
1.4131	312.21669766	5.0
1.4234	313.355434635	4.0
1.4336	314.477601155	3.0
1.4438	315.594306613	4.0
1.4541	316.716445587	8.0
1.4643	317.822255632	7.0
1.4746	318.933446178	4.0
1.4848	320.028467114	9.0
1.495	321.118159093	10.0
1.5053	322.213153148	5.0
1.5155	323.292213277	7.0
1.5258	324.376523752	8.0
1.536	325.445055765	6.0
1.5462	326.508387729	7.0
1.5565	327.576893511	8.0
1.5667	328.629850815	8.0
1.577	329.687931456	10.0
1.5872	330.730615321	7.0
1.5974	331.768224929	9.0
1.6077	332.810883198	6.0
1.6179	333.838369111	15.0
1.6282	334.870854427	6.0
1.6384	335.88831542	17.0
1.6486	336.900824904	18.0
1.6589	337.91826092	21.0
1.6691	338.920891605	14.0
1.6794	339.928400755	23.0
1.6896	340.921249025	17.0
1.6998	341.909265565	23.0
1.7101	342.902089463	25.0
1.7203	343.880466176	22.0
1.7306	344.863603342	24.0
1.7408	345.83243428	25.0
1.751	346.796550369	26.0
1.7613	347.765357524	27.0
1.7715	348.720066976	33.0
1.7818	349.679421724	36.0
1.792	350.624816317	33.0
1.8022	351.565610115	41.0
1.8125	352.5109815	41.0
1.8227	353.44259621	41.0
1.833	354.378743846	42.0
1.8432	355.301269027	57.0
1.8534	356.219304707	65.0
1.8637	357.141807242	59.0
1.8739	358.05088588	78.0
1.8842	358.964387791	64.0
1.8944	359.864596779	77.0
1.9046	360.760424868	75.0
1.9149	361.660611758	71.0
1.9251	362.547699479	84.0
1.9354	363.439103472	84.0
1.9456	364.317536103	93.0
1.9558	365.191693811	102.0
1.9661	366.070104877	94.0
1.9763	366.935733649	110.0
1.9866	367.805574281	91.0
1.9968	368.662757332	140.0
2.007	369.515768872	131.0
2.0173	370.372930881	146.0
2.0275	371.217619803	145.0
2.0378	372.066418698	151.0
2.048	372.902866204	133.0
2.0582	373.735243109	180.0
2.0685	374.571670081	164.0
2.0787	375.395925695	194.0
2.089	376.224191861	195.0
2.0992	377.040405421	198.0
2.1094	377.85264685	204.0
2.1197	378.668840373	229.0
2.1299	379.473156968	242.0
2.1402	380.281387097	222.0
2.1504	381.077856178	230.0
2.1606	381.870449214	281.0
2.1709	382.666898743	261.0
2.1811	383.451758649	307.0
2.1914	384.240437421	312.0
2.2016	385.017639648	357.0
2.2118	385.791059593	334.0
2.2221	386.568242741	334.0
2.2323	387.334116623	402.0
2.2426	388.103716991	366.0
2.2528	388.862118436	362.0
2.263	389.616829093	365.0
2.2733	390.37521192	425.0
2.2835	391.122559056	427.0
2.2938	391.873542534	431.0
2.304	392.613597993	437.0
2.3142	393.350051947	474.0
2.3245	394.090089239	463.0
2.3347	394.819357798	449.0
2.345	395.552174733	486.0
2.3552	396.274328002	498.0
2.3654	396.992966888	494.0
2.3757	397.715102431	505.0
2.3859	398.426729738	544.0
2.3962	399.141819586	522.0
2.4064	399.846503726	536.0
2.4166	400.547758497	603.0
2.4269	401.252425338	554.0
2.4371	401.946838143	534.0
2.4474	402.644629728	565.0
2.4576	403.332267322	539.0
2.4678	404.016558505	576.0
2.4781	404.704179219	598.0
2.4883	405.381793945	497.0
2.4986	406.062705718	521.0
2.5088	406.733709129	540.0
2.519	407.401447078	523.0
2.5293	408.072434017	556.0
2.5395	408.733657016	508.0
2.5498	409.398097305	499.0
2.56	410.052868918	522.0
2.5702	410.704454063	454.0
2.5805	411.359209603	474.0
2.5907	412.004437396	460.0
2.601	412.652804651	472.0
2.6112	413.29173712	451.0
2.6214	413.927560201	432.0
2.6317	414.566476985	404.0
2.6419	415.196096502	396.0
2.6522	415.828779536	387.0
2.6624	416.452256014	347.0
2.6726	417.072698322	332.0
2.6829	417.696159495	350.0
2.6931	418.310548304	342.0
2.7034	418.927926524	337.0
2.7136	419.536320897	329.0
2.7238	420.141754498	325.0
2.7341	420.750133936	285.0
2.7443	421.349660474	277.0
2.7546	421.952104108	306.0
2.7648	422.545781217	297.0
2.775	423.136569176	287.0
2.7853	423.730231712	325.0
2.7955	424.315255502	314.0
2.8058	424.903125822	303.0
2.816	425.482441683	279.0
2.8262	426.058938284	271.0
2.8365	426.638239924	270.0
2.8467	427.209111793	296.0
2.857	427.782761333	330.0
2.8672	428.348063349	309.0
2.8774	428.910614303	302.0
2.8877	429.475902443	340.0
2.8979	430.03296473	347.0
2.9082	430.592737495	337.0
2.9184	431.144364666	383.0
2.9286	431.693307324	369.0
2.9389	432.244920954	378.0
2.9491	432.788507718	376.0
2.9594	433.334739392	410.0
2.9696	433.873022517	423.0
2.9798	434.408686069	377.0
2.9901	434.94695598	423.0
3.0003	435.477393197	422.0
3.0106	436.010411345	418.0
3.0208	436.53567322	433.0
3.031	437.058378891	450.0
3.0413	437.583627873	464.0
3.0515	438.101233636	505.0
3.0618	438.621357896	495.0
3.072	439.133913511	475.0
3.0822	439.643974756	514.0
3.0925	440.156517789	487.0
3.1027	440.661602495	546.0
3.113	441.169144775	528.0
3.1232	441.669301498	553.0
3.1334	442.167024191	585.0
3.1437	442.667168636	560.0
3.1539	443.160035174	548.0
3.1642	443.655299836	531.0
3.1744	444.1433576	602.0
3.1846	444.629040214	559.0
3.1949	445.117085997	540.0
3.2051	445.598029929	584.0
3.2154	446.081313972	561.0
3.2256	446.557565456	571.0
3.2358	447.031499244	581.0
3.2461	447.507739037	572.0
3.2563	447.977048773	602.0
3.2666	448.448642014	604.0
3.2768	448.913372814	593.0
3.287	449.375841986	590.0
3.2973	449.840561378	552.0
3.3075	450.298518355	540.0
3.3178	450.758703597	597.0
3.328	451.212192403	563.0
3.3382	451.663474291	568.0
3.3485	452.116951965	571.0
3.3587	452.563830809	543.0
3.369	453.012884016	560.0
3.3792	453.455402776	542.0
3.3894	453.895768004	533.0
3.3997	454.338275901	556.0
3.4099	454.774344596	506.0
3.4202	455.212535055	521.0
3.4304	455.644349138	495.0
3.4406	456.074061783	513.0
3.4509	456.505865266	504.0
3.4611	456.931385314	514.0
3.4714	457.358975799	504.0
3.4816	457.780344155	495.0
3.4918	458.199661907	485.0
3.5021	458.621019919	488.0
3.5123	459.036246493	509.0
3.5226	459.453493422	459.0
3.5328	459.864668735	445.0
3.543	460.273843051	460.0
3.5533	460.685008271	464.0
3.5635	461.090190376	422.0
3.5738	461.497343961	473.0
3.584	461.898572806	441.0
3.5942	462.297849057	439.0
3.6045	462.699068053	465.0
3.6147	463.094448667	509.0
3.625	463.491753071	458.0
3.6352	463.883276056	446.0
3.6454	464.272893681	442.0
3.6557	464.664407055	424.0
3.6659	465.050223279	448.0
3.6762	465.437916756	450.0
3.6864	465.819968669	457.0
3.6966	466.200161313	421.0
3.7069	466.582203847	482.0
3.7171	466.958687048	496.0
3.7274	467.337002089	425.0
3.7376	467.709812038	433.0
3.7478	468.080807695	436.0
3.7581	468.453608492	425.0
3.7683	468.820984438	437.0
3.7786	469.190147912	471.0
3.7888	469.553939463	441.0
3.799	469.915960611	459.0
3.8093	470.279743232	451.0
3.8195	470.63823223	453.0
3.8298	470.998465516	499.0
3.84	471.353456828	431.0
3.8502	471.706720563	433.0
3.8605	472.06170316	455.0
3.8707	472.41152019	457.0
3.881	472.763039312	454.0
3.8912	473.109443265	410.0
3.9014	473.454161431	432.0
3.9117	473.800556881	429.0
3.9219	474.141911719	418.0
3.9322	474.484927476	446.0
3.9424	474.822951801	494.0
3.9526	475.159331119	427.0
3.9629	475.497347147	410.0
3.9731	475.830444497	403.0
3.9834	476.165162588	427.0
3.9936	476.495009991	455.0
4.0038	476.823252181	403.0
4.0141	477.153091488	415.0
4.0243	477.478131102	434.0
4.0346	477.80475225	424.0
4.0448	478.126620534	425.0
4.055	478.446922435	400.0
4.0653	478.768782819	427.0
4.0755	479.085959615	424.0
4.0858	479.404679688	431.0
4.096	479.718761871	455.0
4.1062	480.031315562	393.0
4.1165	480.345390034	387.0
4.1267	480.654894218	418.0
4.137	480.965904345	397.0
4.1472	481.272388775	423.0
4.1574	481.577381687	418.0
4.1677	481.883858593	376.0
4.1779	482.185875767	392.0
4.1882	482.489362455	397.0
4.1984	482.788432923	375.0
4.2086	483.086047955	391.0
4.2189	483.385111082	383.0
4.2291	483.679822359	410.0
4.2394	483.975967603	392.0
4.2496	484.267803456	368.0
4.2598	484.558219081	444.0
4.2701	484.85004777	397.0
4.2803	485.137629883	371.0
4.2906	485.426611273	405.0
4.3008	485.71138752	388.0
4.311	485.994777893	386.0
4.3213	486.279547149	371.0
4.3315	486.560172554	366.0
4.3418	486.842163388	360.0
4.352	487.120050801	365.0
4.3622	487.396585866	372.0
4.3725	487.674466458	351.0
4.3827	487.948303441	365.0
4.393	488.223472822	373.0
4.4032	488.494638046	358.0
4.4134	488.764483635	359.0
4.4237	489.035642202	388.0
4.4339	489.302854976	345.0
4.4442	489.571367918	351.0
4.4544	489.835973564	362.0
4.4646	490.099291498	334.0
4.4749	490.363890649	344.0
4.4851	490.624639456	387.0
4.4954	490.88665698	354.0
4.5056	491.144861727	323.0
4.5158	491.401809912	361.0
4.5261	491.660008321	339.0
4.5363	491.914449527	353.0
4.5466	492.170128759	361.0
4.5568	492.422087447	360.0
4.567	492.672819969	392.0
4.5773	492.924772471	361.0
4.5875	493.17305866	317.0
4.5978	493.422552925	358.0
4.608	493.668416648	342.0
4.6182	493.913083866	343.0
4.6285	494.158941553	358.0
4.6387	494.401221616	326.0
4.649	494.644680531	363.0
4.6592	494.884596728	344.0
4.6694	495.123345364	369.0
4.6797	495.363255672	336.0
4.6899	495.599674898	380.0
4.7002	495.837244461	362.0
4.7104	496.071357005	373.0
4.7206	496.304330231	391.0
4.7309	496.538437028	349.0
4.7411	496.769137194	361.0
4.7514	497.00095987	337.0
4.7616	497.229409152	309.0
4.7718	497.456746679	343.0
4.7821	497.685190353	369.0
4.7923	497.910309805	350.0
4.8026	498.136524612	327.0
4.8128	498.35944763	363.0
4.823	498.581285786	339.0
4.8333	498.804203332	321.0
4.8435	499.023877068	379.0
4.8538	499.244619664	341.0
4.864	499.462150099	365.0
4.8742	499.678621915	333.0
4.8845	499.896147011	343.0
4.8947	500.110506766	342.0
4.905	500.325909524	348.0
4.9152	500.538177825	368.0
4.9254	500.749413116	349.0
4.9357	500.961676206	366.0
4.9459	501.170850527	353.0
4.9562	501.381042621	317.0
4.9664	501.588176081	346.0
4.9766	501.794301518	299.0
4.9869	502.001429894	342.0
4.9971	502.205544218	333.0
5.0074	502.410651694	320.0
5.0176	502.612774526	330.0
5.0278	502.81391372	330.0
5.0381	503.016031591	319.0
5.0483	503.215208321	299.0
5.0586	503.415354179	340.0
5.0688	503.612587592	266.0
5.079	503.808861162	282.0
5.0893	504.006089733	285.0
5.0995	504.200448311	299.0
5.1098	504.395752573	308.0
5.12	504.588214844	283.0
5.1302	504.779740491	293.0
5.1405	504.972198037	289.0
5.1507	505.161855016	294.0
5.161	505.352434803	292.0
5.1712	505.540241347	284.0
5.1814	505.727133923	274.0
5.1917	505.914935857	283.0
5.2019	506.10000497	283.0
5.2122	506.285974568	280.0
5.2224	506.469238009	238.0
5.2326	506.651609592	271.0
5.2429	506.834868534	297.0
5.2531	507.015460763	245.0
5.2634	507.196931694	239.0
5.2736	507.37576193	245.0
5.2838	507.553721883	224.0
5.2941	507.73254773	247.0
5.3043	507.908771373	247.0
5.3146	508.085852461	243.0
5.3248	508.260356734	202.0
5.335	508.434011777	213.0
5.3453	508.608511766	216.0
5.3555	508.7804725	218.0
5.3658	508.953269937	195.0
5.376	509.123552894	204.0
5.3862	509.293007162	212.0
5.3965	509.463285939	186.0
5.4067	509.631086885	189.0
5.417	509.799704294	199.0
5.4272	509.965868049	178.0
5.4374	510.131223162	165.0
5.4477	510.297382838	155.0
5.4579	510.461124623	141.0
5.4682	510.62566312	166.0
5.4784	510.787807318	154.0
5.4886	510.949162435	143.0
5.4989	511.111302653	143.0
5.5091	511.271083469	143.0
5.5194	511.431641725	127.0
5.5296	511.589863601	133.0
5.5398	511.747315484	123.0
5.5501	511.905533475	127.0
5.5603	512.06144914	134.0
5.5706	512.218123438	134.0
5.5808	512.372517873	104.0
5.591	512.526160942	108.0
5.6013	512.680551587	110.0
5.6115	512.8326956	99.0
5.6218	512.985579895	103.0
5.632	513.136239477	105.0
5.6422	513.286165868	102.0
5.6525	513.436821752	86.0
5.6627	513.58528535	89.0
5.673	513.734471322	106.0
5.6832	513.881486398	91.0
5.6934	514.027786021	76.0
5.7037	514.174797488	72.0
5.7139	514.319669702	69.0
5.7242	514.465246815	82.0
5.7344	514.608705547	57.0
5.7446	514.751466133	63.0
5.7549	514.894921343	54.0
5.7651	515.03628905	73.0
5.7754	515.178344604	52.0
5.7856	515.318333021	64.0
5.7958	515.45764018	60.0
5.8061	515.597625161	56.0
5.8163	515.735573136	49.0
5.8266	515.874192319	44.0
5.8368	516.010794369	48.0
5.847	516.146731641	54.0
5.8573	516.283330339	47.0
5.8675	516.417941305	48.0
5.8778	516.553207244	54.0
5.888	516.686504845	46.0
5.8982	516.819153749	47.0
5.9085	516.952448078	38.0
5.9187	517.08380276	47.0
5.929	517.21579657	36.0
5.9392	517.345869658	46.0
5.9494	517.47530974	40.0
5.9597	517.605379635	31.0
5.9699	517.733556803	25.0
5.9802	517.862357638	28.0
5.9904	517.989284215	23.0
6.0006	518.115593098	20.0
6.0109	518.242516558	16.0
6.0211	518.367593078	27.0
6.0314	518.493278178	15.0
6.0416	518.617134358	26.0
6.0518	518.740387787	23.0
6.0621	518.864240926	22.0
6.0723	518.986291803	21.0
6.0826	519.108936538	17.0
6.0928	519.229796596	22.0
6.103	519.350068483	16.0
6.1133	519.470925573	11.0
6.1235	519.590023999	25.0
6.1338	519.709701917	13.0
6.144	519.827638329	25.0
6.1542	519.945000799	7.0
6.1645	520.062934316	12.0
6.1747	520.17915171	14.0
6.185	520.295934579	10.0
6.1952	520.41101807	16.0
6.2054	520.525541502	15.0
6.2157	520.640622168	8.0
6.2259	520.754028225	13.0
6.2362	520.867986077	13.0
6.2464	520.980285659	6.0
6.2566	521.092038732	16.0
6.2669	521.204335558	11.0
6.2771	521.314998284	6.0
6.2874	521.426199457	5.0
6.2976	521.535782475	9.0
6.3078	521.644832204	9.0
6.3181	521.754412531	8.0
6.3283	521.862398289	11.0
6.3386	521.970909469	8.0
6.3488	522.077841637	5.0
6.359	522.184253416	8.0
6.3693	522.291182959	11.0
6.3795	522.396556505	6.0
6.3898	522.502442763	8.0
6.4	522.606788206	5.0
6.4102	522.710625848	9.0
6.4205	522.81496873	5.0
6.4307	522.917793254	5.0
6.441	523.021118089	8.0
6.4512	523.12293938	8.0
6.4614	523.224265155	8.0
6.4717	523.326083947	5.0
6.4819	523.426421112	4.0
6.4922	523.527246484	5.0
6.5024	523.626604685	7.0
6.5126	523.725479355	3.0
6.5229	523.824835116	4.0
6.5331	523.922745092	9.0
6.5434	524.021131464	9.0
6.5536	524.118086156	7.0
6.5638	524.214569015	3.0
6.5741	524.311521328	9.0
6.5843	524.407062828	2.0
6.5946	524.503069201	4.0
6.6048	524.597678527	3.0
6.615	524.691827433	8.0
6.6253	524.786434436	4.0
6.6355	524.879664756	4.0
6.6458	524.973348702	6.0
6.656	525.065669397	6.0
6.6662	525.15754081	6.0
6.6765	525.249859238	6.0
6.6867	525.340834284	6.0
6.697	525.432251985	4.0
6.7072	525.522339411	5.0
6.7174	525.611988423	2.0
6.7277	525.702073638	2.0
6.7379	525.790847968	7.0
6.7482	525.880054244	2.0
6.7584	525.967962425	4.0
6.7686	526.055442797	6.0
6.7789	526.14334882	2.0
6.7891	526.229975669	4.0
6.7994	526.317024015	5.0
6.8096	526.402805668	3.0
6.8198	526.488169861	4.0
6.8301	526.573949408	3.0
6.8403	526.658480724	8.0
6.8506	526.743423342	0.0
6.8608	526.827129908	1.0
6.871	526.910429112	5.0
6.8813	526.994133623	1.0
6.8915	527.076620099	3.0
6.9018	527.159507926	2.0
6.912	527.241189602	2.0
6.9222	527.322473771	2.0
6.9325	527.404153442	4.0
6.9427	527.484644542	3.0
6.953	527.565527284	3.0
6.9632	527.645233053	5.0
6.9734	527.724550931	3.0
6.9837	527.804254743	0.0
6.9939	527.882798736	3.0
7.0042	527.961724899	3.0
7.0144	528.039502558	1.0
7.0246	528.11690171	3.0
7.0349	528.19467746	1.0
7.0451	528.271321448	3.0
7.0554	528.34833836	1.0
7.0656	528.424234551	4.0
7.0758	528.499761392	1.0
7.0861	528.57565572	6.0
7.0963	528.650445665	1.0
7.1066	528.725599511	3.0
7.1168	528.799659749	1.0
7.127	528.87335957	3.0
7.1373	528.947417989	4.0
7.1475	529.020398739	3.0
7.1578	529.09373459	2.0
7.168	529.166003285	2.0
7.1782	529.237920283	3.0
7.1885	529.310187204	5.0
7.1987	529.381402525	1.0
7.209	529.452964357	2.0
7.2192	529.523484848	3.0
7.2294	529.59366215	7.0
7.2397	529.66418091	4.0
7.2499	529.733673509	0.0
7.2602	529.803504236	1.0
7.2704	529.872318813	2.0
7.2806	529.940798502	5.0
7.2909	530.00961139	6.0
7.3011	530.077422939	0.0
7.3114	530.145564437	5.0
7.3216	530.212714367	3.0
7.3318	530.279537509	7.0
7.3421	530.34668579	4.0
7.3523	530.412856956	2.0
7.3626	530.479350088	2.0
7.3728	530.544875638	2.0
7.383	530.610082306	3.0
7.3933	530.675606248	2.0
7.4035	530.740176711	3.0
7.4138	530.805061352	3.0
7.424	530.869001817	2.0
7.4342	530.932631114	2.0
7.4445	530.99657001	4.0
7.4547	531.059578491	1.0
7.465	531.122893551	3.0
7.4752	531.185287275	3.0
7.4854	531.247377358	5.0
7.4957	531.30976955	1.0
7.5059	531.371253836	6.0
7.5162	531.433037283	5.0
7.5264	531.493921682	3.0
7.5366	531.554509785	0.0
7.5469	531.615392689	3.0
7.5571	531.675389649	3.0
7.5674	531.735678534	1.0
7.5776	531.795090119	1.0
7.5878	531.854212576	5.0
7.5981	531.913622702	1.0
7.6083	531.972168315	4.0
7.6186	532.030998792	1.0
7.6288	532.088973191	3.0
7.639	532.146665455	2.0
7.6493	532.204638431	2.0
7.6595	532.261767806	4.0
7.6698	532.319175154	1.0
7.68	532.375747133	2.0
7.6902	532.432043802	1.0
7.7005	532.488614392	0.0
7.7107	532.544361788	1.0
7.721	532.600380433	2.0
7.7312	532.655583917	0.0
7.7414	532.71051875	1.0
7.7517	532.765720879	3.0
7.7619	532.820119727	1.0
7.7722	532.874783262	3.0
7.7824	532.928651355	0.0
7.7926	532.982257297	6.0
7.8029	533.036124067	2.0
7.8131	533.089206989	3.0
7.8234	533.142548195	3.0
7.8336	533.1951132	1.0
7.8438	533.247422397	2.0
7.8541	533.299986112	1.0
