TL-DOS Lehrstuhlversuch
detector=R1408303
job_number=2015-10-21-007
irradiation_dose [mSv]=2.0

[BEGIN DATA]
time [sec] 	 temperature [K] 	 photoncount 
0.0	137.875188542	0.0
0.0102	139.68470432	0.0
0.0205	141.503923175	0.0
0.0307	143.297555423	3.0
0.041	145.100805576	2.0
0.0512	146.878693714	1.0
0.0614	148.648799762	2.0
0.0717	150.428397563	0.0
0.0819	152.18296601	2.0
0.0922	153.946942893	0.0
0.1024	155.686110125	1.0
0.1126	157.417664754	1.0
0.1229	159.158504413	1.0
0.1331	160.874859837	4.0
0.1434	162.600418789	0.0
0.1536	164.301708423	0.0
0.1638	165.99555125	1.0
0.1741	167.698476887	1.0
0.1843	169.377451535	0.0
0.1946	171.065429266	1.0
0.2048	172.729666245	1.0
0.215	174.386618602	0.0
0.2253	176.052455952	0.0
0.2355	177.694863946	0.0
0.2458	179.346078944	5.0
0.256	180.974070242	1.0
0.2662	182.594935572	0.0
0.2765	184.224492388	0.0
0.2867	185.831130119	0.0
0.297	187.446383044	0.0
0.3072	189.038918063	0.0
0.3174	190.624482311	0.0
0.3277	192.218548752	0.0
0.3379	193.790195266	0.0
0.3482	195.370269342	0.0
0.3584	196.92812029	1.0
0.3686	198.479152283	0.0
0.3789	200.038501299	0.0
0.3891	201.575918675	0.0
0.3994	203.121580069	0.0
0.4096	204.645502335	0.0
0.4198	206.162754157	0.0
0.4301	207.688141865	0.0
0.4403	209.192075585	0.0
0.4506	210.704073776	0.0
0.4608	212.194806297	0.0
0.471	213.679013653	0.0
0.4813	215.171179701	0.0
0.4915	216.642359011	0.0
0.5018	218.121427154	0.0
0.512	219.579692777	0.0
0.5222	221.031575346	0.0
0.5325	222.491243274	0.0
0.5427	223.930381538	0.0
0.553	225.377236822	0.0
0.5632	226.803742647	0.0
0.5734	228.224004437	2.0
0.5837	229.651882026	0.0
0.5939	231.059677071	1.0
0.6042	232.475021065	0.0
0.6144	233.870458795	0.0
0.6246	235.259788478	0.0
0.6349	236.656568096	1.0
0.6451	238.03370255	0.0
0.6554	239.418221544	0.0
0.6656	240.783267815	1.0
0.6758	242.142339068	2.0
0.6861	243.508698002	0.0
0.6963	244.855839627	0.0
0.7066	246.210204963	1.0
0.7168	247.545521676	0.0
0.727	248.874993502	0.0
0.7373	250.211594289	0.0
0.7475	251.529396303	0.0
0.7578	252.854264703	0.0
0.768	254.160499342	0.0
0.7782	255.461016391	0.0
0.7885	256.768507138	0.0
0.7987	258.057608535	0.0
0.809	259.353622416	0.0
0.8192	260.631408365	1.0
0.8294	261.903601247	0.0
0.8397	263.182615947	2.0
0.8499	264.443641801	0.0
0.8602	265.711429592	1.0
0.8704	266.961386438	0.0
0.8806	268.205872031	0.0
0.8909	269.457030868	0.0
0.9011	270.69059264	0.0
0.9114	271.93076908	0.0
0.9216	273.153502919	1.0
0.9318	274.370884664	0.0
0.9421	275.594794315	0.0
0.9523	276.80149015	0.0
0.9626	278.014656592	1.0
0.9728	279.210760318	0.0
0.983	280.401628513	0.0
0.9933	281.598882442	0.0
1.0035	282.779297459	1.0
1.0138	283.966042157	1.0
1.024	285.13609575	1.0
1.0342	286.301027839	0.0
1.0445	287.472206586	2.0
1.0547	288.626913157	0.0
1.065	289.787811555	0.0
1.0752	290.932382367	0.0
1.0854	292.071943216	1.0
1.0957	293.217614676	0.0
1.1059	294.34717271	1.0
1.1162	295.482787719	2.0
1.1264	296.602430742	0.0
1.1366	297.717172915	0.0
1.1469	298.837892615	1.0
1.1571	299.942849827	1.0
1.1674	301.053732097	1.0
1.1776	302.148990238	0.0
1.1878	303.239454265	1.0
1.1981	304.335765634	0.0
1.2083	305.416657808	0.0
1.2186	306.503345997	0.0
1.2288	307.574750338	1.0
1.239	308.641464977	0.0
1.2493	309.713899608	0.0
1.2595	310.771250861	1.0
1.2698	311.834271896	2.0
1.28	312.882341953	2.0
1.2902	313.925824445	0.0
1.3005	314.974902352	1.0
1.3107	316.009225385	1.0
1.321	317.049094718	2.0
1.3312	318.074338691	3.0
1.3414	319.095095014	1.0
1.3517	320.121324887	2.0
1.3619	321.133121236	2.0
1.3722	322.15034309	1.0
1.3824	323.153258113	3.0
1.3926	324.151783222	1.0
1.4029	325.155662673	7.0
1.4131	326.145422949	6.0
1.4234	327.140490568	4.0
1.4336	328.121562946	1.0
1.4438	329.098341019	5.0
1.4541	330.080356821	3.0
1.4643	331.048560952	7.0
1.4746	332.021956836	9.0
1.4848	332.981662284	4.0
1.495	333.937166953	5.0
1.5053	334.897795278	7.0
1.5155	335.844912738	6.0
1.5258	336.797108879	4.0
1.536	337.73591275	9.0
1.5462	338.670607332	9.0
1.5565	339.610313981	5.0
1.5667	340.53680402	8.0
1.577	341.468262131	15.0
1.5872	342.386619645	12.0
1.5974	343.300957366	6.0
1.6077	344.220197996	17.0
1.6179	345.126509862	14.0
1.6282	346.0376816	9.0
1.6384	346.93603806	12.0
1.6486	347.830462276	14.0
1.6589	348.729682618	18.0
1.6691	349.616255775	20.0
1.6794	350.50758296	20.0
1.6896	351.386373973	19.0
1.6998	352.261318382	23.0
1.7101	353.140954463	22.0
1.7203	354.008218803	26.0
1.7306	354.880133632	23.0
1.7408	355.739785317	32.0
1.751	356.595674174	26.0
1.7613	357.456152521	32.0
1.7715	358.304528574	39.0
1.7818	359.157453833	28.0
1.792	359.998383028	30.0
1.8022	360.835631346	32.0
1.8125	361.6773692	47.0
1.8227	362.507268337	53.0
1.833	363.341617601	52.0
1.8432	364.164232066	35.0
1.8534	364.983245821	61.0
1.8637	365.806651333	58.0
1.8739	366.618475966	58.0
1.8842	367.434653806	78.0
1.8944	368.239352421	76.0
1.9046	369.040528746	79.0
1.9149	369.846001179	67.0
1.9251	370.640144955	83.0
1.9354	371.438547129	77.0
1.9456	372.225720086	93.0
1.9558	373.009447465	103.0
1.9661	373.797377387	120.0
1.9763	374.57422538	112.0
1.9866	375.355239027	115.0
1.9968	376.125268019	111.0
2.007	376.891926476	123.0
2.0173	377.662695948	139.0
2.0275	378.422624846	146.0
2.0378	379.186628673	161.0
2.048	379.939887083	151.0
2.0582	380.689848364	156.0
2.0685	381.443831126	157.0
2.0787	382.187209412	178.0
2.089	382.93457388	187.0
2.0992	383.671426955	196.0
2.1094	384.405054712	208.0
2.1197	385.142616364	198.0
2.1299	385.869804497	242.0
2.1402	386.600891995	216.0
2.1504	387.321697032	247.0
2.1606	388.039346993	254.0
2.1709	388.760845173	265.0
2.1811	389.472195762	270.0
2.1914	390.18736079	287.0
2.2016	390.892467299	319.0
2.2118	391.594487449	295.0
2.2221	392.300272006	312.0
2.2323	392.996129978	317.0
2.2426	393.695719314	332.0
2.2528	394.385469197	351.0
2.263	395.072199939	383.0
2.2733	395.762613104	362.0
2.2835	396.443315874	349.0
2.2938	397.127668744	379.0
2.304	397.802396456	405.0
2.3142	398.47417078	427.0
2.3245	399.149547327	398.0
2.3347	399.815424965	400.0
2.345	400.484873205	408.0
2.3552	401.144905915	397.0
2.3654	401.802049561	381.0
2.3757	402.462716975	397.0
2.3859	403.114092359	383.0
2.3962	403.76896058	407.0
2.4064	404.414618334	413.0
2.4166	405.057449944	390.0
2.4269	405.703728578	398.0
2.4371	406.340917554	417.0
2.4474	406.981523297	393.0
2.4576	407.613119169	403.0
2.4678	408.241950448	403.0
2.4781	408.874153678	352.0
2.4883	409.497465214	357.0
2.4986	410.124119104	386.0
2.5088	410.741959349	364.0
2.519	411.357095212	406.0
2.5293	411.975529588	388.0
2.5395	412.585265925	348.0
2.5498	413.19827182	357.0
2.56	413.802656025	320.0
2.5702	414.404394747	269.0
2.5805	415.009360143	258.0
2.5907	415.605816936	285.0
2.601	416.205472079	310.0
2.6112	416.796693305	255.0
2.6214	417.385326664	262.0
2.6317	417.977116423	262.0
2.6419	418.560582889	255.0
2.6522	419.147178048	221.0
2.6624	419.725522973	241.0
2.6726	420.301336394	230.0
2.6829	420.880237471	221.0
2.6931	421.450996528	217.0
2.7034	422.024816138	206.0
2.7136	422.590565198	209.0
2.7238	423.153837888	186.0
2.7341	423.720130986	204.0
2.7443	424.278459392	225.0
2.7546	424.839781694	235.0
2.7648	425.393209216	237.0
2.775	425.944214301	192.0
2.7853	426.498174012	228.0
2.7955	427.044342495	252.0
2.8058	427.593439671	225.0
2.816	428.134814007	212.0
2.8262	428.673818665	242.0
2.8365	429.215713601	236.0
2.8467	429.749986994	288.0
2.857	430.287125295	271.0
2.8672	430.816708955	266.0
2.8774	431.343974545	256.0
2.8877	431.874067465	257.0
2.8979	432.396704834	275.0
2.9082	432.922144715	270.0
2.9184	433.440194488	311.0
2.9286	433.955976678	351.0
2.9389	434.474524621	329.0
2.9491	434.985779388	331.0
2.9594	435.499775631	345.0
2.9696	436.006542716	343.0
2.9798	436.511091604	342.0
2.9901	437.018346009	365.0
3.0003	437.518466078	379.0
3.0106	438.021267916	351.0
3.0208	438.516998041	375.0
3.031	439.010558279	370.0
3.0413	439.50676511	388.0
3.0515	439.995992985	392.0
3.0618	440.487844222	403.0
3.072	440.972777763	401.0
3.0822	441.455588674	385.0
3.0925	441.940988539	430.0
3.1027	442.419561442	400.0
3.113	442.900700574	391.0
3.1232	443.37507267	387.0
3.1334	443.847368366	402.0
3.1437	444.32219663	404.0
3.1539	444.790346619	413.0
3.1642	445.261006946	443.0
3.1744	445.725047617	430.0
3.1846	446.187057111	413.0
3.1949	446.651544015	401.0
3.2051	447.109498091	422.0
3.2154	447.569907832	398.0
3.2256	448.023842088	403.0
3.2358	448.475789404	415.0
3.2461	448.930160175	425.0
3.2563	449.378140397	406.0
3.2666	449.828522802	407.0
3.2768	450.272570752	421.0
3.287	450.714675036	420.0
3.2973	451.159149994	392.0
3.3075	451.597373584	435.0
3.3178	452.037947039	394.0
3.328	452.472323999	398.0
3.3382	452.904799624	423.0
3.3485	453.339594292	372.0
3.3587	453.768273741	382.0
3.369	454.199251877	408.0
3.3792	454.624168473	406.0
3.3894	455.047225143	387.0
3.3997	455.472550349	354.0
3.4099	455.891893521	355.0
3.4202	456.313485316	375.0
3.4304	456.729147585	348.0
3.4406	457.142990438	371.0
3.4509	457.559052419	348.0
3.4611	457.969262649	360.0
3.4714	458.38167253	366.0
3.4816	458.788282026	362.0
3.4918	459.193111729	334.0
3.5021	459.600112231	352.0
3.5123	460.001388428	331.0
3.5226	460.404816369	330.0
3.5328	460.802570252	333.0
3.543	461.198583105	365.0
3.5533	461.596719479	368.0
3.5635	461.989256218	365.0
3.5738	462.383897838	337.0
3.584	462.772988977	316.0
3.5942	463.160377004	349.0
3.6045	463.549842302	327.0
3.6147	463.933829922	322.0
3.625	464.31987658	338.0
3.6352	464.700493641	330.0
3.6454	465.079444683	332.0
3.6557	465.460427755	349.0
3.6659	465.836052448	343.0
3.6762	466.213691335	363.0
3.6864	466.586018877	329.0
3.6966	466.956716684	378.0
3.7069	467.329402266	314.0
3.7171	467.696846169	313.0
3.7274	468.066260399	340.0
3.7376	468.430478961	343.0
3.7478	468.793103282	330.0
3.7581	469.157672085	335.0
3.7683	469.51711337	324.0
3.7786	469.878482069	336.0
3.7888	470.234768257	347.0
3.799	470.589494926	348.0
3.8093	470.946123728	319.0
3.8195	471.297736684	349.0
3.8298	471.651235077	315.0
3.84	471.999761652	335.0
3.8502	472.346762672	333.0
3.8605	472.695624399	351.0
3.8707	473.039579521	350.0
3.881	473.385379017	354.0
3.8912	473.726314977	307.0
3.9014	474.065758607	368.0
3.9117	474.407022419	337.0
3.9219	474.743486488	336.0
3.9322	475.081754762	349.0
3.9424	475.415265424	346.0
3.9526	475.747316258	315.0
3.9629	476.081147632	328.0
3.9731	476.410283797	339.0
3.9834	476.741184872	370.0
3.9936	477.067431953	333.0
4.0038	477.392250999	323.0
4.0141	477.718811807	311.0
4.0243	478.040779663	296.0
4.0346	478.364473992	311.0
4.0448	478.683615686	296.0
4.055	479.001360447	332.0
4.0653	479.320809035	326.0
4.0755	479.635764703	288.0
4.0858	479.952409242	358.0
4.096	480.264600298	326.0
4.1062	480.575424846	335.0
4.1165	480.887916113	311.0
4.1267	481.196012311	338.0
4.137	481.505760599	296.0
4.1472	481.811152397	309.0
4.1574	482.115207448	288.0
4.1677	482.420892918	293.0
4.1779	482.722279041	304.0
4.1882	483.025281271	310.0
4.1984	483.324021893	320.0
4.2086	483.621454881	307.0
4.2189	483.920482779	315.0
4.2291	484.215304966	298.0
4.2394	484.511708063	279.0
4.2496	484.803942366	275.0
4.2598	485.094897514	262.0
4.2701	485.387412836	310.0
4.2803	485.675814044	288.0
4.2906	485.965761731	262.0
4.3008	486.251631417	290.0
4.311	486.536249806	280.0
4.3213	486.822394391	278.0
4.3315	487.104514464	270.0
4.3418	487.388147335	267.0
4.352	487.667791019	271.0
4.3622	487.94621066	288.0
4.3725	488.226123257	269.0
4.3827	488.502098992	290.0
4.393	488.779554577	279.0
4.4032	489.053107858	280.0
4.4134	489.325463753	217.0
4.4237	489.59928009	284.0
4.4339	489.869245305	265.0
4.4442	490.140658142	281.0
4.4544	490.408253662	280.0
4.4646	490.674677876	286.0
4.4749	490.942530723	249.0
4.4851	491.206616323	277.0
4.4954	491.472118017	262.0
4.5056	491.733885532	261.0
4.5158	491.994507251	262.0
4.5261	492.256526489	284.0
4.5363	492.514860527	266.0
4.5466	492.774579817	281.0
4.5568	493.030646257	265.0
4.567	493.285591854	257.0
4.5773	493.541904533	273.0
4.5875	493.794612274	276.0
4.5978	494.048675096	265.0
4.608	494.299164624	297.0
4.6182	494.548557721	271.0
4.6285	494.799288126	270.0
4.6387	495.046492105	258.0
4.649	495.295021653	265.0
4.6592	495.54005573	277.0
4.6694	495.784017255	267.0
4.6797	496.029286963	284.0
4.6899	496.271107047	275.0
4.7002	496.514223831	281.0
4.7104	496.753921272	255.0
4.7206	496.992569521	252.0
4.7309	497.232497461	274.0
4.7411	497.469050907	291.0
4.7514	497.706872813	273.0
4.7616	497.941349845	296.0
4.7718	498.174800536	267.0
4.7821	498.409503047	324.0
4.7923	498.640904559	250.0
4.8026	498.873546904	255.0
4.8128	499.102917224	263.0
4.823	499.331283555	259.0
4.8333	499.560874443	271.0
4.8435	499.787236225	261.0
4.8538	500.014811815	277.0
4.864	500.239186643	245.0
4.8742	500.462579348	256.0
4.8845	500.68716994	252.0
4.8947	500.908601753	271.0
4.905	501.131220938	259.0
4.9152	501.350709071	286.0
4.9254	501.569236471	255.0
4.9357	501.788935669	244.0
4.9459	502.005544883	246.0
4.9562	502.22331561	251.0
4.9664	502.438023477	249.0
4.9766	502.651791534	244.0
4.9869	502.866705868	239.0
4.9971	503.078597516	267.0
5.0074	503.29162538	224.0
5.0176	503.50165709	249.0
5.0278	503.710769459	218.0
5.0381	503.92100314	223.0
5.0483	504.128279967	208.0
5.0586	504.336668263	232.0
5.0688	504.542125659	226.0
5.079	504.746683736	209.0
5.0893	504.952338705	224.0
5.0995	505.155101217	228.0
5.1098	505.358950992	205.0
5.12	505.559933699	208.0
5.1302	505.760036673	208.0
5.1405	505.96121265	232.0
5.1507	506.159559165	183.0
5.161	506.358969264	197.0
5.1712	506.555574736	202.0
5.1814	506.751319637	210.0
5.1917	506.94811417	188.0
5.2019	507.142140865	172.0
5.2122	507.337207979	149.0
5.2224	507.529531551	177.0
5.2326	507.721013292	149.0
5.2429	507.913521806	158.0
5.2531	508.103322763	169.0
5.2634	508.29414148	160.0
5.2736	508.482276405	137.0
5.2838	508.669587836	159.0
5.2941	508.857903677	153.0
5.3043	509.043570928	142.0
5.3146	509.230233774	146.0
5.3248	509.41427128	138.0
5.335	509.597503225	132.0
5.3453	509.781717705	125.0
5.3555	509.96334128	129.0
5.3658	510.145938767	120.0
5.376	510.32596809	111.0
5.3862	510.505209398	125.0
5.3965	510.685411842	125.0
5.4067	510.863079809	102.0
5.417	511.041700476	104.0
5.4272	511.217808912	98.0
5.4374	511.393146495	103.0
5.4477	511.569424282	106.0
5.4579	511.74322279	93.0
5.4682	511.917953249	115.0
5.4784	512.090226192	95.0
5.4886	512.26174507	71.0
5.4989	512.434183675	86.0
5.5091	512.604196998	83.0
5.5194	512.775121975	71.0
5.5296	512.943642958	97.0
5.5398	513.111426299	72.0
5.5501	513.280109337	73.0
5.5603	513.446419912	77.0
5.5706	513.613622287	70.0
5.5808	513.778473026	69.0
5.591	513.942602187	64.0
5.6013	514.10761145	68.0
5.6115	514.270299921	61.0
5.6218	514.433860769	57.0
5.632	514.595121197	56.0
5.6422	514.755675764	63.0
5.6525	514.917091264	61.0
5.6627	515.076236517	52.0
5.673	515.236235148	51.0
5.6832	515.393983459	41.0
5.6934	515.551041282	44.0
5.7037	515.708941289	40.0
5.7139	515.864620493	32.0
5.7242	516.021134488	30.0
5.7344	516.175447174	28.0
5.7446	516.32908441	33.0
5.7549	516.483545487	25.0
5.7651	516.635834129	29.0
5.7754	516.788939381	29.0
5.7856	516.939891267	33.0
5.7958	517.090182413	21.0
5.8061	517.241279459	35.0
5.8163	517.390251382	19.0
5.8266	517.540022131	20.0
5.8368	517.687686412	24.0
5.847	517.834704343	21.0
5.8573	517.982510622	15.0
5.8675	518.128238063	23.0
5.8778	518.27474693	21.0
5.888	518.419195208	15.0
5.8982	518.563011212	16.0
5.9085	518.707598395	18.0
5.9187	518.850152015	22.0
5.929	518.993470042	10.0
5.9392	519.134772358	12.0
5.9494	519.275456171	11.0
5.9597	519.416894367	12.0
5.9699	519.556343288	12.0
5.9802	519.69653997	13.0
5.9904	519.83476484	12.0
6.0006	519.972384679	13.0
6.0109	520.110742469	11.0
6.0211	520.247154311	5.0
6.0314	520.384297627	12.0
6.0416	520.519512076	10.0
6.0518	520.65413467	9.0
6.0621	520.789479145	8.0
6.0723	520.922920051	4.0
6.0826	521.057076502	13.0
6.0928	521.189346094	12.0
6.103	521.321036721	9.0
6.1133	521.453433507	12.0
6.1235	521.583968183	8.0
6.1338	521.715202819	13.0
6.144	521.84459169	13.0
6.1542	521.973414207	9.0
6.1645	522.102927502	3.0
6.1747	522.230619243	5.0
6.185	522.358995699	6.0
6.1952	522.48556659	7.0
6.2054	522.61158346	3.0
6.2157	522.738276065	8.0
6.2259	522.863186787	3.0
6.2362	522.988767312	4.0
6.2464	523.112581595	3.0
6.2566	523.235853925	3.0
6.2669	523.359787271	3.0
6.2771	523.481977543	4.0
6.2874	523.60482303	7.0
6.2976	523.725940742	7.0
6.3078	523.846528304	4.0
6.3181	523.967762486	6.0
6.3283	524.087291557	4.0
6.3386	524.207461573	6.0
6.3488	524.325941443	3.0
6.359	524.44390271	7.0
6.3693	524.562496514	4.0
6.3795	524.679422342	2.0
6.3898	524.796975156	5.0
6.4	524.912874635	5.0
6.4102	525.028266804	3.0
6.4205	525.144277735	6.0
6.4307	525.258657017	4.0
6.441	525.373649629	4.0
6.4512	525.487024915	9.0
6.4614	525.59990394	3.0
6.4717	525.71338825	2.0
6.4819	525.825276448	3.0
6.4922	525.937764618	5.0
6.5024	526.048670686	5.0
6.5126	526.159091301	2.0
6.5229	526.270104018	1.0
6.5331	526.379555385	3.0
6.5434	526.489593658	2.0
6.5536	526.598084285	5.0
6.5638	526.706100032	3.0
6.5741	526.814694986	2.0
6.5843	526.921762594	5.0
6.5946	527.029404326	4.0
6.6048	527.135532118	3.0
6.615	527.241195373	3.0
6.6253	527.347425221	9.0
6.6355	527.452160987	3.0
6.6458	527.557458372	3.0
6.656	527.66127479	2.0
6.6662	527.764636788	8.0
6.6765	527.868553039	3.0
6.6867	527.971007749	0.0
6.697	528.074011846	0.0
6.7072	528.17556723	3.0
6.7174	528.276678091	6.0
6.7277	528.378331133	3.0
6.7379	528.478554465	3.0
6.7482	528.579315219	4.0
6.7584	528.678658813	2.0
6.7686	528.777567564	0.0
6.7789	528.877006689	1.0
6.7891	528.975047241	4.0
6.7994	529.073613511	1.0
6.8096	529.170793485	4.0
6.8198	529.267548087	3.0
6.8301	529.364821512	4.0
6.8403	529.460726823	0.0
6.8506	529.557146403	1.0
6.8608	529.652209878	2.0
6.871	529.746857247	3.0
6.8813	529.842012138	3.0
6.8915	529.935828712	3.0
6.9018	530.030148355	4.0
6.912	530.123141428	3.0
6.9222	530.215727456	4.0
6.9325	530.308809954	2.0
6.9427	530.400583283	1.0
6.953	530.492848723	3.0
6.9632	530.583816485	3.0
6.9734	530.674386068	2.0
6.9837	530.765441307	5.0
6.9939	530.85521589	1.0
7.0042	530.945471866	4.0
7.0144	531.034458428	1.0
7.0246	531.123055481	2.0
7.0349	531.212127614	4.0
7.0451	531.299946982	1.0
7.0554	531.388237259	2.0
7.0656	531.475285768	1.0
7.0758	531.561953252	1.0
7.0861	531.649085469	0.0
7.0963	531.734992205	1.0
7.1066	531.821359594	2.0
7.1168	531.90651226	1.0
7.127	531.991292199	1.0
7.1373	532.07652675	2.0
7.1475	532.160562509	1.0
7.1578	532.24504889	0.0
7.168	532.328347002	3.0
7.1782	532.411280506	2.0
7.1885	532.494658719	3.0
7.1987	532.576864251	0.0
7.209	532.659510589	4.0
7.2192	532.740994539	3.0
7.2294	532.82212182	1.0
7.2397	532.903684127	4.0
7.2499	532.984099291	1.0
7.2602	533.064945662	1.0
7.2704	533.144654959	1.0
7.2806	533.224015357	0.0
7.2909	533.303801305	1.0
7.3011	533.382465095	4.0
7.3114	533.4615507	3.0
7.3216	533.539523996	3.0
7.3318	533.617155991	1.0
7.3421	533.695204269	4.0
7.3523	533.772154827	2.0
7.3626	533.849518014	2.0
7.3728	533.925793118	2.0
7.383	534.001734353	1.0
7.3933	534.078082805	4.0
7.4035	534.153357445	2.0
7.4138	534.229035727	2.0
7.424	534.303649623	4.0
7.4342	534.377936923	2.0
7.4445	534.452622569	2.0
7.4547	534.526257791	3.0
7.465	534.600287864	3.0
7.4752	534.673276732	2.0
7.4854	534.745946117	1.0
7.4957	534.819005173	3.0
7.5059	534.891036682	3.0
7.5162	534.963454442	0.0
7.5264	535.034853674	1.0
7.5366	535.10594038	0.0
7.5469	535.177408272	1.0
7.5571	535.247870995	2.0
7.5674	535.318711557	1.0
7.5776	535.388555774	1.0
7.5878	535.458094272	1.0
7.5981	535.528005653	0.0
7.6083	535.596933758	1.0
7.6186	535.666231472	1.0
7.6288	535.734554541	3.0
7.639	535.802578549	3.0
7.6493	535.870967319	3.0
7.6595	535.938394227	3.0
7.6698	536.006182696	2.0
7.68	536.073017745	3.0
7.6902	536.139560248	0.0
7.7005	536.206459568	1.0
7.7107	536.272417975	1.0
7.721	536.338730068	2.0
7.7312	536.404109507	3.0
7.7414	536.469202769	1.0
7.7517	536.534645079	2.0
7.7619	536.599166967	4.0
7.7722	536.664034838	3.0
7.7824	536.727990368	4.0
7.7926	536.791665954	1.0
7.8029	536.855682985	4.0
7.8131	536.918799641	4.0
7.8234	536.982254745	3.0
7.8336	537.044817377	3.0
7.8438	537.107106163	1.0
7.8541	537.169728956	4.0
7.8643	537.231470985	1.0
