TL-DOS Lehrstuhlversuch
detector=R1407203
job_number=2015-10-20-015
irradiation_dose [mSv]=5.0

[BEGIN DATA]
time [sec] 	 temperature [K] 	 photoncount 
0.0	179.440672419	0.0
0.0102	180.712551406	1.0
0.0205	181.992591531	0.0
0.0307	183.255951936	0.0
0.041	184.52741882	0.0
0.0512	185.782317697	6.0
0.0614	187.033027586	1.0
0.0717	188.29176278	1.0
0.0819	189.53409587	2.0
0.0922	190.784400515	0.0
0.1024	192.01841291	3.0
0.1126	193.248306039	3.0
0.1229	194.4860909	1.0
0.1331	195.707746653	2.0
0.1434	196.937241282	2.0
0.1536	198.15071483	2.0
0.1638	199.360137672	0.0
0.1741	200.577320896	2.0
0.1843	201.778643465	0.0
0.1946	202.98767444	0.0
0.2048	204.180950987	2.0
0.215	205.370244249	1.0
0.2253	206.56716873	2.0
0.2355	207.748496538	2.0
0.2458	208.937404455	0.0
0.256	210.11082016	0.0
0.2662	211.280318877	2.0
0.2765	212.4573218	0.0
0.2867	213.61898764	0.0
0.297	214.788107426	1.0
0.3072	215.941992852	0.0
0.3174	217.092026484	0.0
0.3277	218.249439422	0.0
0.3379	219.391770548	1.0
0.3482	220.541431555	0.0
0.3584	221.676111763	0.0
0.3686	222.807004286	0.0
0.3789	223.945153294	0.0
0.3891	225.068471511	0.0
0.3994	226.198997612	0.0
0.4096	227.314792252	0.0
0.4198	228.42686225	0.0
0.4301	229.546067956	1.0
0.4403	230.650689714	0.0
0.4506	231.762399388	1.0
0.4608	232.859622792	0.0
0.471	233.953183546	0.0
0.4813	235.053761241	0.0
0.4915	236.139997723	1.0
0.5018	237.233204151	0.0
0.512	238.312165417	1.0
0.5222	239.387524994	0.0
0.5325	240.469784723	1.0
0.5427	241.537941933	0.0
0.553	242.612953081	0.0
0.5632	243.673956163	0.0
0.5734	244.731417502	1.0
0.5837	245.795664148	1.0
0.5939	246.846042997	0.0
0.6042	247.903161707	0.0
0.6144	248.946505501	0.0
0.6246	249.9863665	0.0
0.6349	251.032899872	0.0
0.6451	252.065796261	0.0
0.6554	253.105320334	0.0
0.6656	254.13129876	0.0
0.6758	255.153852358	0.0
0.6861	256.182967275	0.0
0.6963	257.198672182	0.0
0.7066	258.220894462	0.0
0.7168	259.229796548	0.0
0.727	260.23533081	0.0
0.7373	261.247317183	1.0
0.7475	262.246116743	0.0
0.7578	263.251325201	1.0
0.768	264.243435165	0.0
0.7782	265.232233359	1.0
0.7885	266.227376276	0.0
0.7987	267.20955186	0.0
0.809	268.198029672	0.0
0.8192	269.173627002	0.0
0.8294	270.145967682	0.0
0.8397	271.124547484	0.0
0.8499	272.090375781	1.0
0.8602	273.062401412	1.0
0.8704	274.021760943	0.0
0.8806	274.977918028	0.0
0.8909	275.940210391	0.0
0.9011	276.889963484	0.0
0.9114	277.845810764	2.0
0.9216	278.789202757	0.0
0.9318	279.729445606	0.0
0.9421	280.675721617	0.0
0.9523	281.609667062	0.0
0.9626	282.549605261	0.0
0.9728	283.47729548	1.0
0.983	284.401888968	0.0
0.9933	285.332415203	1.0
1.0035	286.250816101	0.0
1.0138	287.175110011	0.0
1.024	288.087359794	1.0
1.0342	288.996564389	0.0
1.0445	289.911602987	1.0
1.0547	290.814718061	1.0
1.065	291.723628063	0.0
1.0752	292.620694402	1.0
1.0854	293.514766235	0.0
1.0957	294.414574971	1.0
1.1059	295.302658638	0.0
1.1162	296.196440782	0.0
1.1264	297.078576388	1.0
1.1366	297.95776733	0.0
1.1469	298.842599688	2.0
1.1571	299.715902129	1.0
1.1674	300.594808203	1.0
1.1776	301.462261583	2.0
1.1878	302.32681931	2.0
1.1981	303.196924557	1.0
1.2083	304.055691791	1.0
1.2186	304.919969391	0.0
1.2288	305.772984915	2.0
1.239	306.623152981	0.0
1.2493	307.478776236	4.0
1.2595	308.323250186	3.0
1.2698	309.173142787	1.0
1.28	310.011960759	2.0
1.2902	310.847978665	1.0
1.3005	311.689360963	1.0
1.3107	312.519779526	1.0
1.321	313.355526553	2.0
1.3312	314.180383275	3.0
1.3414	315.002486536	3.0
1.3517	315.829864905	4.0
1.3619	316.646462018	4.0
1.3722	317.468298908	5.0
1.3824	318.279426751	8.0
1.3926	319.087846962	6.0
1.4029	319.901454481	3.0
1.4131	320.704460188	4.0
1.4234	321.512618461	3.0
1.4336	322.310245928	4.0
1.4438	323.105210829	1.0
1.4541	323.905276701	5.0
1.4643	324.694917216	11.0
1.4746	325.489624538	4.0
1.4848	326.273976329	8.0
1.495	327.055709869	4.0
1.5053	327.84245948	4.0
1.5155	328.618957253	3.0
1.5258	329.400437502	3.0
1.536	330.171734576	7.0
1.5462	330.940456977	10.0
1.5565	331.714111962	12.0
1.5667	332.477685741	12.0
1.577	333.246159067	13.0
1.5872	334.004618707	7.0
1.5974	334.760546526	10.0
1.6077	335.521324832	10.0
1.6179	336.272189722	9.0
1.6282	337.027872612	13.0
1.6384	337.773708483	16.0
1.6486	338.517054673	13.0
1.6589	339.265170618	12.0
1.6691	340.003538147	16.0
1.6794	340.746643484	11.0
1.6896	341.480065695	24.0
1.6998	342.211039664	15.0
1.7101	342.946704001	15.0
1.7203	343.672782172	18.0
1.7306	344.403519297	15.0
1.7408	345.124734462	26.0
1.751	345.843542132	22.0
1.7613	346.566962104	20.0
1.7715	347.280955463	24.0
1.7818	347.999530231	25.0
1.792	348.708741522	27.0
1.8022	349.41558539	30.0
1.8125	350.126964791	30.0
1.8227	350.829074476	33.0
1.833	351.535689318	37.0
1.8432	352.233096528	50.0
1.8534	352.928175717	45.0
1.8637	353.627714951	47.0
1.8739	354.318138753	40.0
1.8842	355.012992728	47.0
1.8944	355.698792323	43.0
1.9046	356.382302645	45.0
1.9149	357.070198779	50.0
1.9251	357.749131198	52.0
1.9354	358.432420055	63.0
1.9456	359.106805231	61.0
1.9558	359.778939238	62.0
1.9661	360.455386059	64.0
1.9763	361.123018356	72.0
1.9866	361.794934583	79.0
1.9968	362.458095323	78.0
2.007	363.11904236	87.0
2.0173	363.784230431	90.0
2.0275	364.440750686	87.0
2.0378	365.101483569	112.0
2.048	365.75360669	102.0
2.0582	366.403552954	107.0
2.0685	367.057669664	125.0
2.0787	367.703262824	113.0
2.089	368.352998498	117.0
2.0992	368.994267712	149.0
2.1094	369.633396299	144.0
2.1197	370.276625918	152.0
2.1299	370.911473855	149.0
2.1402	371.550395357	168.0
2.1504	372.180991314	166.0
2.1606	372.809482273	177.0
2.1709	373.442006007	175.0
2.1811	374.066287563	178.0
2.1914	374.694574884	204.0
2.2016	375.314675229	196.0
2.2118	375.932705613	210.0
2.2221	376.55470165	225.0
2.2323	377.168592691	268.0
2.2426	377.786422825	274.0
2.2528	378.396202248	291.0
2.263	379.003946161	286.0
2.2733	379.615589723	310.0
2.2835	380.219263189	321.0
2.2938	380.826810186	342.0
2.304	381.426440467	356.0
2.3142	382.024069117	355.0
2.3245	382.625532511	374.0
2.3347	383.219158462	385.0
2.345	383.816593473	398.0
2.3552	384.406243534	447.0
2.3654	384.993925279	453.0
2.3757	385.585377943	467.0
2.3859	386.16912361	494.0
2.3962	386.75661494	541.0
2.4064	387.336450891	502.0
2.4166	387.914351287	526.0
2.4269	388.495959839	569.0
2.4371	389.069989669	537.0
2.4474	389.647702819	628.0
2.4576	390.217888006	595.0
2.4678	390.786169854	644.0
2.4781	391.358098138	633.0
2.4883	391.922573841	627.0
2.4986	392.490671559	726.0
2.5088	393.051366609	716.0
2.519	393.610189998	754.0
2.5293	394.172599134	755.0
2.5395	394.727679728	758.0
2.5498	395.286322052	819.0
2.56	395.837684919	801.0
2.5702	396.387207276	818.0
2.5805	396.940255699	811.0
2.5907	397.486097556	874.0
2.601	398.035441862	863.0
2.6112	398.57762787	874.0
2.6214	399.118004001	934.0
2.6317	399.661847511	921.0
2.6419	400.1986044	977.0
2.6522	400.738805444	928.0
2.6624	401.271967331	978.0
2.6726	401.803349466	1041.0
2.6829	402.338141268	964.0
2.6931	402.8659644	948.0
2.7034	403.397174361	973.0
2.7136	403.921462325	1012.0
2.7238	404.44400016	978.0
2.7341	404.969890911	984.0
2.7443	405.488928977	1010.0
2.7546	406.011297503	991.0
2.7648	406.526859242	981.0
2.775	407.04069998	977.0
2.7853	407.557837828	942.0
2.7955	408.068237048	991.0
2.8058	408.581911295	990.0
2.816	409.088892047	939.0
2.8262	409.594180442	916.0
2.8365	410.102711071	907.0
2.8467	410.604615229	871.0
2.857	411.109739905	858.0
2.8672	411.608282491	801.0
2.8774	412.105160889	798.0
2.8877	412.605227556	791.0
2.8979	413.098778043	737.0
2.9082	413.595495446	703.0
2.9184	414.085740312	711.0
2.9286	414.574348688	664.0
2.9389	415.066092267	670.0
2.9491	415.551428122	633.0
2.9594	416.039878183	566.0
2.9696	416.521963434	582.0
2.9798	417.002439434	554.0
2.9901	417.485998455	544.0
3.0003	417.963256401	510.0
3.0106	418.44357672	524.0
3.0208	418.917638167	500.0
3.031	419.390117144	492.0
3.0413	419.865627831	521.0
3.0515	420.334942317	498.0
3.0618	420.807268206	430.0
3.072	421.273439394	453.0
3.0822	421.738054453	451.0
3.0925	422.20565076	456.0
3.1027	422.667153996	448.0
3.113	423.131618514	442.0
3.1232	423.59003077	439.0
3.1334	424.046912796	460.0
3.1437	424.506726451	453.0
3.1539	424.960548448	453.0
3.1642	425.417282439	447.0
3.1744	425.868064901	456.0
3.1846	426.317342603	461.0
3.1949	426.76950314	482.0
3.2051	427.215771743	498.0
3.2154	427.664903874	488.0
3.2256	428.108183533	485.0
3.2358	428.549983476	518.0
3.2461	428.994618274	523.0
3.2563	429.433459202	545.0
3.2666	429.875115997	573.0
3.2768	430.311017729	535.0
3.287	430.745464374	573.0
3.2973	431.182698689	555.0
3.3075	431.614235568	549.0
3.3178	432.048541447	541.0
3.328	432.47718805	629.0
3.3382	432.904403784	598.0
3.3485	433.33436079	568.0
3.3587	433.758715189	634.0
3.369	434.1857925	720.0
3.3792	434.607304728	642.0
3.3894	435.027409902	701.0
3.3997	435.450210723	688.0
3.4099	435.867502186	640.0
3.4202	436.287471241	690.0
3.4304	436.701967837	721.0
3.4406	437.1150808	728.0
3.4509	437.530844542	774.0
3.4611	437.941190624	789.0
3.4714	438.354169733	760.0
3.4816	438.761767467	777.0
3.4918	439.168004595	796.0
3.5021	439.576848384	777.0
3.5123	439.980364684	845.0
3.5226	440.386470187	802.0
3.5328	440.787283882	802.0
3.543	441.186759617	787.0
3.5533	441.588798629	816.0
3.5635	441.985598821	850.0
3.5738	442.384945122	846.0
3.584	442.779087691	859.0
3.5942	443.17191457	812.0
3.6045	443.567262062	809.0
3.6147	443.95745793	846.0
3.625	444.350157528	864.0
3.6352	444.737740006	887.0
3.6454	445.124028692	839.0
3.6557	445.512796037	818.0
3.6659	445.896497502	890.0
3.6762	446.282661026	873.0
3.6864	446.663792598	865.0
3.6966	447.043651912	828.0
3.7069	447.425948631	878.0
3.7171	447.803263785	843.0
3.7274	448.18300002	825.0
3.7376	448.557788056	837.0
3.7478	448.931325008	826.0
3.7581	449.307258797	851.0
3.7683	449.678293935	811.0
3.7786	450.051709857	791.0
3.7888	450.420259936	786.0
3.799	450.787579756	804.0
3.8093	451.15725652	826.0
3.8195	451.522116165	817.0
3.8298	451.889316969	795.0
3.84	452.251732917	762.0
3.8502	452.612939082	753.0
3.8605	452.976462962	780.0
3.8707	453.3352499	788.0
3.881	453.69633903	770.0
3.8912	454.052722943	762.0
3.9014	454.407917208	734.0
3.9117	454.765390613	778.0
3.9219	455.118205917	727.0
3.9322	455.473285095	681.0
3.9424	455.82373737	686.0
3.9526	456.173019798	663.0
3.9629	456.524543431	690.0
3.9731	456.871486492	677.0
3.9834	457.220655748	676.0
3.9936	457.565275111	707.0
4.0038	457.908744097	737.0
4.0141	458.254416987	724.0
4.0243	458.595585543	648.0
4.0346	458.938943241	704.0
4.0448	459.277826775	698.0
4.055	459.615579078	645.0
4.0653	459.955498604	711.0
4.0755	460.290988765	698.0
4.0858	460.628631633	693.0
4.096	460.961874804	681.0
4.1062	461.294005573	652.0
4.1165	461.628267493	650.0
4.1267	461.958173771	667.0
4.137	462.290196926	675.0
4.1472	462.617893613	667.0
4.1574	462.944496412	690.0
4.1677	463.273194891	646.0
4.1779	463.597610224	672.0
4.1882	463.9241072	681.0
4.1984	464.246349717	674.0
4.2086	464.567516554	664.0
4.2189	464.89074419	667.0
4.2291	465.209759968	630.0
4.2394	465.530822743	646.0
4.2496	465.84770187	662.0
4.2598	466.16352322	653.0
4.2701	466.481371069	657.0
4.2803	466.795077163	658.0
4.2906	467.110796183	645.0
4.3008	467.422401188	652.0
4.311	467.732966022	637.0
4.3213	468.045523625	690.0
4.3315	468.354008409	637.0
4.3418	468.664472616	663.0
4.352	468.97089128	664.0
4.3622	469.276287087	655.0
4.3725	469.583642495	708.0
4.3827	469.886992872	656.0
4.393	470.192289726	626.0
4.4032	470.493608372	648.0
4.4134	470.793921184	704.0
4.4237	471.096160983	668.0
4.4339	471.394462409	642.0
4.4442	471.694677916	662.0
4.4544	471.990981427	613.0
4.4646	472.286295846	616.0
4.4749	472.583505179	661.0
4.4851	472.876841689	672.0
4.4954	473.172060423	692.0
4.5056	473.463432272	680.0
4.5158	473.75383149	692.0
4.5261	474.046094084	613.0
4.5363	474.334548315	657.0
4.5466	474.62485344	627.0
4.5568	474.911375709	634.0
4.567	475.196941536	616.0
4.5773	475.484339724	635.0
4.5875	475.767992935	628.0
4.5978	476.053466235	651.0
4.608	476.33521964	646.0
4.6182	476.616032522	651.0
4.6285	476.898647268	617.0
4.6387	477.177579367	611.0
4.649	477.458301262	598.0
4.6592	477.735365176	589.0
4.6694	478.01150422	633.0
4.6797	478.289415138	612.0
4.6899	478.563704704	595.0
4.7002	478.839754276	594.0
4.7104	479.11220675	593.0
4.7206	479.383749749	613.0
4.7309	479.65703513	607.0
4.7411	479.926759432	580.0
4.7514	480.198214448	584.0
4.7616	480.466132235	605.0
4.7718	480.733155683	572.0
4.7821	481.001892515	602.0
4.7923	481.267127538	598.0
4.8026	481.534064468	670.0
4.8128	481.797523043	624.0
4.823	482.060102165	600.0
4.8333	482.324366153	584.0
4.8435	482.585186616	590.0
4.8538	482.847680659	568.0
4.864	483.106754242	529.0
4.8742	483.364963009	558.0
4.8845	483.624828598	595.0
4.8947	483.881307976	603.0
4.905	484.139433081	572.0
4.9152	484.394194654	565.0
4.9254	484.648105805	533.0
4.9357	484.903646203	563.0
4.9459	485.15585675	551.0
4.9562	485.409685632	558.0
4.9664	485.660206965	563.0
4.9766	485.90989203	537.0
4.9869	486.161179225	545.0
4.9971	486.409191991	563.0
5.0074	486.658796156	535.0
5.0176	486.905147823	527.0
5.0278	487.150677141	604.0
5.0381	487.397781923	555.0
5.0483	487.641666775	525.0
5.0586	487.887116539	517.0
5.0688	488.12936794	532.0
5.079	488.370810679	548.0
5.0893	488.613802659	515.0
5.0995	488.853628303	544.0
5.1098	489.094992812	540.0
5.12	489.333212191	554.0
5.1302	489.570636368	514.0
5.1405	489.809584001	514.0
5.1507	490.045417997	562.0
5.161	490.282765246	573.0
5.1712	490.517019712	556.0
5.1814	490.750492211	551.0
5.1917	490.98546281	549.0
5.2019	491.217371596	555.0
5.2122	491.450768448	520.0
5.2224	491.681123993	522.0
5.2326	491.910710586	582.0
5.2429	492.141770345	553.0
5.2531	492.369819251	505.0
5.2634	492.599331456	561.0
5.2736	492.825852973	513.0
5.2838	493.051618337	519.0
5.2941	493.278832348	554.0
5.3043	493.503085618	564.0
5.3146	493.728777832	536.0
5.3248	493.951529135	573.0
5.335	494.173536871	530.0
5.3453	494.396969141	559.0
5.3555	494.617489949	570.0
5.3658	494.839425752	530.0
5.376	495.058469592	554.0
5.3862	495.276782241	566.0
5.3965	495.496495715	571.0
5.4067	495.713346185	531.0
5.417	495.931588097	533.0
5.4272	496.146986182	538.0
5.4374	496.361665244	521.0
5.4477	496.577721816	501.0
5.4579	496.790963037	563.0
5.4682	497.005572541	504.0
5.4784	497.217385549	513.0
5.4886	497.428491503	574.0
5.4989	497.640952039	566.0
5.5091	497.850644082	577.0
5.5194	498.061681635	562.0
5.5296	498.269969237	590.0
5.5398	498.477561552	517.0
5.5501	498.686485904	536.0
5.5603	498.892687842	567.0
5.5706	499.100212895	518.0
5.5808	499.305033768	548.0
5.591	499.509170926	542.0
5.6013	499.71461795	563.0
5.6115	499.917387872	530.0
5.6218	500.121458887	572.0
5.632	500.32287073	560.0
5.6422	500.523610238	495.0
5.6525	500.725637812	549.0
5.6627	500.92503284	538.0
5.673	501.125707306	524.0
5.6832	501.323766859	494.0
5.6934	501.521165268	498.0
5.7037	501.719830303	473.0
5.7139	501.91590661	521.0
5.7242	502.113241059	467.0
5.7344	502.308004117	524.0
5.7446	502.502117036	528.0
5.7549	502.697475499	524.0
5.7651	502.89028832	479.0
5.7754	503.084338343	515.0
5.7856	503.275859774	496.0
5.7958	503.466741885	520.0
5.8061	503.658848811	484.0
5.8163	503.848452464	453.0
5.8266	504.039272727	489.0
5.8368	504.227606484	482.0
5.847	504.415311562	476.0
5.8573	504.604221068	485.0
5.8675	504.790668966	481.0
5.8778	504.978313226	429.0
5.888	505.163512363	470.0
5.8982	505.348093286	454.0
5.9085	505.533858591	456.0
5.9187	505.717203259	372.0
5.929	505.901724375	461.0
5.9392	506.083841067	445.0
5.9494	506.265349833	425.0
5.9597	506.448023268	449.0
5.9699	506.628316355	408.0
5.9802	506.809766311	401.0
5.9904	506.98885186	377.0
6.0006	507.167339602	414.0
6.0109	507.346972629	405.0
6.0211	507.524264926	362.0
6.0314	507.702694836	394.0
6.0416	507.878799693	360.0
6.0518	508.054316693	379.0
6.0621	508.230959916	367.0
6.0723	508.405301367	364.0
6.0826	508.580761498	371.0
6.0928	508.753935274	325.0
6.103	508.926530977	338.0
6.1133	509.100234158	351.0
6.1235	509.271673878	306.0
6.1338	509.444213658	324.0
6.144	509.614505137	319.0
6.1542	509.784228165	324.0
6.1645	509.955040237	302.0
6.1747	510.123626522	297.0
6.185	510.293294558	280.0
6.1952	510.460751713	314.0
6.2054	510.627649878	301.0
6.2157	510.795618962	257.0
6.2259	510.961399304	284.0
6.2362	511.128243393	258.0
6.2464	511.292913398	234.0
6.2566	511.457033718	270.0
6.2669	511.622207132	249.0
6.2771	511.785228233	235.0
6.2874	511.949295376	258.0
6.2976	512.111224622	234.0
6.3078	512.27261333	248.0
6.3181	512.435037605	210.0
6.3283	512.59534539	211.0
6.3386	512.756681806	227.0
6.3488	512.915915909	226.0
6.359	513.07461847	202.0
6.3693	513.234339363	201.0
6.3795	513.391978993	169.0
6.3898	513.550630133	185.0
6.4	513.70721395	206.0
6.4102	513.863275073	173.0
6.4205	514.020337578	167.0
6.4307	514.17535346	164.0
6.441	514.331364018	162.0
6.4512	514.485341661	174.0
6.4614	514.63880531	187.0
6.4717	514.793253673	161.0
6.4819	514.945689478	145.0
6.4922	515.099103403	139.0
6.5024	515.250518249	105.0
6.5126	515.401427655	136.0
6.5229	515.553305387	138.0
6.5331	515.703204057	126.0
6.5434	515.854064568	126.0
6.5536	516.002959271	110.0
6.5638	516.151356948	130.0
6.5741	516.300706834	119.0
6.5843	516.448110597	99.0
6.5946	516.596460192	108.0
6.6048	516.742876699	88.0
6.615	516.888804451	81.0
6.6253	517.035668564	106.0
6.6355	517.180618946	94.0
6.6458	517.326499416	96.0
6.656	517.470478973	82.0
6.6662	517.613977911	79.0
6.6765	517.758397624	82.0
6.6867	517.900935458	72.0
6.697	518.0443879	85.0
6.7072	518.185971067	58.0
6.7174	518.327081615	75.0
6.7277	518.469097612	64.0
6.7379	518.609263053	55.0
6.7482	518.750327879	58.0
6.7584	518.889554543	62.0
6.7686	519.028316453	46.0
6.7789	519.167968742	48.0
6.7891	519.305801275	45.0
6.7994	519.444518225	60.0
6.8096	519.581427606	49.0
6.8198	519.717879969	43.0
6.8301	519.855207892	54.0
6.8403	519.990746346	39.0
6.8506	520.127154497	50.0
6.8608	520.261785164	50.0
6.871	520.39596642	41.0
6.8813	520.531008663	48.0
6.8915	520.664291221	45.0
6.9018	520.798429001	31.0
6.912	520.930818881	41.0
6.9222	521.06276683	44.0
6.9325	521.195561436	40.0
6.9427	521.326625646	29.0
6.953	521.458530842	24.0
6.9632	521.588717231	31.0
6.9734	521.718469044	22.0
6.9837	521.849053422	38.0
6.9939	521.977936205	35.0
7.0042	522.107645977	31.0
7.0144	522.235665549	28.0
7.0246	522.363257779	25.0
7.0349	522.491668716	24.0
7.0451	522.61840638	24.0
7.0554	522.745957268	20.0
7.0656	522.871846088	15.0
7.0758	522.997314678	21.0
7.0861	523.12358835	18.0
7.0963	523.248216597	18.0
7.1066	523.373644534	23.0
7.1168	523.497438067	18.0
7.127	523.620818363	21.0
7.1373	523.744990341	9.0
7.1475	523.867544282	15.0
7.1578	523.990884601	21.0
7.168	524.11261772	18.0
7.1782	524.23394448	20.0
7.1885	524.356049745	25.0
7.1987	524.476563903	20.0
7.209	524.597851352	21.0
7.2192	524.71755835	9.0
7.2294	524.836865753	11.0
7.2397	524.956938703	10.0
7.2499	525.075447029	16.0
7.2602	525.194715775	16.0
7.2704	525.312430375	11.0
7.2806	525.42975203	20.0
7.2909	525.547826492	18.0
7.3011	525.66436237	9.0
7.3114	525.781646013	13.0
7.3216	525.897401376	11.0
7.3318	526.012770335	7.0
7.3421	526.128879571	13.0
7.3523	526.243475831	11.0
7.3626	526.358807409	11.0
7.3728	526.472636145	11.0
7.383	526.586084909	8.0
7.3933	526.700261628	11.0
7.4035	526.812950553	17.0
7.4138	526.926362557	8.0
7.424	527.038296733	5.0
7.4342	527.14985726	10.0
7.4445	527.262133627	10.0
7.4547	527.372946962	13.0
7.465	527.484471343	8.0
7.4752	527.594542491	3.0
7.4854	527.704246209	7.0
7.4957	527.814653853	4.0
7.5059	527.923622816	10.0
7.5162	528.03329099	9.0
7.5264	528.141530118	7.0
7.5366	528.249407933	9.0
7.5469	528.357977957	2.0
7.5571	528.465133246	5.0
7.5674	528.572976107	4.0
7.5776	528.679413708	11.0
7.5878	528.78549601	4.0
7.5981	528.892258999	4.0
7.6083	528.997630799	8.0
7.6186	529.103678729	8.0
7.6288	529.208344787	7.0
7.639	529.31266146	4.0
7.6493	529.41764749	3.0
7.6595	529.521265487	2.0
7.6698	529.62554836	9.0
7.68	529.728472361	5.0
7.6902	529.831052791	9.0
7.7005	529.934291439	8.0
7.7107	530.036184823	6.0
7.721	530.138732015	7.0
7.7312	530.239942954	3.0
7.7414	530.34081604	1.0
7.7517	530.442336388	3.0
7.7619	530.542533863	5.0
7.7722	530.643374265	2.0
7.7824	530.742900654	4.0
