TL-DOS Lehrstuhlversuch
detector=R1407204
job_number=2015-11-04-004
irradiation_dose [mSv]=0.09

[BEGIN DATA]
time [sec] 	 temperature [K] 	 photoncount 
0.0	170.733671584	0.0
0.0102	172.222034131	0.0
0.0205	173.71981849	1.0
0.0307	175.197959052	2.0
0.041	176.685456718	1.0
0.0512	178.1534455	0.0
0.0614	179.616409157	2.0
0.0717	181.088633843	4.0
0.0819	182.541549954	2.0
0.0922	184.003663489	4.0
0.1024	185.446601059	0.0
0.1126	186.884599258	3.0
0.1229	188.331700447	0.0
0.1331	189.759822561	0.0
0.1434	191.196985145	3.0
0.1536	192.615299002	4.0
0.1638	194.028757779	3.0
0.1741	195.451164202	2.0
0.1843	196.854915428	0.0
0.1946	198.26755285	0.0
0.2048	199.661663197	1.0
0.215	201.051001316	2.0
0.2253	202.44913439	2.0
0.2355	203.828930617	2.0
0.2458	205.217461397	1.0
0.256	206.587781267	0.0
0.2662	207.953410347	0.0
0.2765	209.327684296	1.0
0.2867	210.683934317	0.0
0.297	212.048769835	0.0
0.3072	213.395705212	0.0
0.3174	214.738029847	0.0
0.3277	216.088851828	0.0
0.3379	217.421957457	1.0
0.3482	218.763502073	0.0
0.3584	220.087452013	0.0
0.3686	221.406869894	0.0
0.3789	222.734640112	0.0
0.3891	224.04499631	0.0
0.3994	225.363647482	0.0
0.4096	226.665004232	0.0
0.4198	227.961906261	2.0
0.4301	229.267018096	0.0
0.4403	230.55501308	0.0
0.4506	231.851161485	0.0
0.4608	233.130310597	0.0
0.471	234.405081008	0.0
0.4813	235.687921124	0.0
0.4915	236.953936489	0.0
0.5018	238.227966136	0.0
0.512	239.485286583	2.0
0.5222	240.738303051	0.0
0.5325	241.999251516	0.0
0.5427	243.243662343	0.0
0.553	244.495950689	0.0
0.5632	245.731814976	0.0
0.5734	246.963448733	2.0
0.5837	248.202879127	0.0
0.5939	249.426054097	0.0
0.6042	250.656972157	1.0
0.6144	251.871746434	0.0
0.6246	253.082362375	0.0
0.6349	254.300641903	0.0
0.6451	255.502943407	0.0
0.6554	256.712855864	0.0
0.6656	257.906900032	0.0
0.6758	259.096856826	0.0
0.6861	260.294346428	0.0
0.6963	261.47613067	0.0
0.7066	262.665395985	1.0
0.7168	263.839063804	1.0
0.727	265.008713998	1.0
0.7373	266.185768454	0.0
0.7475	267.347385561	0.0
0.7578	268.516356077	0.0
0.768	269.669995268	0.0
0.7782	270.819685395	0.0
0.7885	271.97665343	0.0
0.7987	273.118447555	0.0
0.809	274.267469602	0.0
0.8192	275.401421953	0.0
0.8294	276.531492632	0.0
0.8397	277.668717021	1.0
0.8499	278.791026442	0.0
0.8602	279.920440441	0.0
0.8704	281.035041908	0.0
0.8806	282.145827944	0.0
0.8909	283.263645611	0.0
0.9011	284.366802835	1.0
0.9114	285.476943397	0.0
0.9216	286.572524203	0.0
0.9318	287.664354688	0.0
0.9421	288.763096809	1.0
0.9523	289.847428668	1.0
0.9626	290.938624694	0.0
0.9728	292.015509426	0.0
0.983	293.088707836	0.0
0.9933	294.168699936	0.0
1.0035	295.234527683	0.0
1.0138	296.307102462	1.0
1.024	297.365610168	0.0
1.0342	298.42049446	0.0
1.0445	299.482056507	0.0
1.0547	300.529695916	0.0
1.065	301.583967218	0.0
1.0752	302.624411503	0.0
1.0854	303.661294206	0.0
1.0957	304.704740709	2.0
1.1059	305.734502164	0.0
1.1162	306.770782338	0.0
1.1264	307.793471453	0.0
1.1366	308.812659765	0.0
1.1469	309.838299865	0.0
1.1571	310.850488452	0.0
1.1674	311.869084517	0.0
1.1776	312.874321454	0.0
1.1878	313.876117329	1.0
1.1981	314.884254892	1.0
1.2083	315.879170493	2.0
1.2186	316.880384228	1.0
1.2288	317.868466808	0.0
1.239	318.853167048	1.0
1.2493	319.844100755	0.0
1.2595	320.822038133	0.0
1.2698	321.806166167	0.0
1.28	322.777387129	1.0
1.2902	323.74528347	0.0
1.3005	324.719306906	0.0
1.3107	325.680555793	0.0
1.321	326.647889693	1.0
1.3312	327.602536781	0.0
1.3414	328.553915982	2.0
1.3517	329.511317719	0.0
1.3619	330.456162904	1.0
1.3722	331.406989263	1.0
1.3824	332.345345309	0.0
1.3926	333.280489235	0.0
1.4029	334.221552922	1.0
1.4131	335.150274336	0.0
1.4234	336.084874853	1.0
1.4336	337.007217864	1.0
1.4438	337.92640357	1.0
1.4541	338.851408016	1.0
1.4643	339.764280809	0.0
1.4746	340.68293238	0.0
1.4848	341.589535617	1.0
1.495	342.493035429	0.0
1.5053	343.402254685	0.0
1.5155	344.299549315	1.0
1.5258	345.202524107	1.0
1.536	346.093656171	0.0
1.5462	346.981737769	0.0
1.5565	347.875441208	1.0
1.5667	348.757423515	0.0
1.577	349.644989053	2.0
1.5872	350.520913958	4.0
1.5974	351.393840454	1.0
1.6077	352.272292854	2.0
1.6179	353.139224144	1.0
1.6282	354.011643385	1.0
1.6384	354.872620642	1.0
1.6486	355.730650658	2.0
1.6589	356.594112278	0.0
1.6691	357.446249394	1.0
1.6794	358.303780812	1.0
1.6896	359.150065502	1.0
1.6998	359.993453245	2.0
1.7101	360.842179902	2.0
1.7203	361.679775309	4.0
1.7306	362.522672962	1.0
1.7408	363.354515814	5.0
1.751	364.183511154	3.0
1.7613	365.017754301	2.0
1.7715	365.841056152	4.0
1.7818	366.669569767	4.0
1.792	367.487217229	7.0
1.8022	368.302065774	6.0
1.8125	369.122072571	4.0
1.8227	369.931324785	3.0
1.833	370.745699824	4.0
1.8432	371.549394142	3.0
1.8534	372.350337306	2.0
1.8637	373.156350697	5.0
1.8739	373.951793031	5.0
1.8842	374.752270769	5.0
1.8944	375.542250053	8.0
1.9046	376.329525131	5.0
1.9149	377.121783912	7.0
1.9251	377.903652032	8.0
1.9354	378.690469627	8.0
1.9456	379.466967923	5.0
1.9558	380.240808161	8.0
1.9661	381.019547055	7.0
1.9763	381.788072604	8.0
1.9866	382.561463167	4.0
1.9968	383.324710528	7.0
2.007	384.085345191	8.0
2.0173	384.850794915	5.0
2.0275	385.606205584	11.0
2.0378	386.366398245	12.0
2.048	387.1166208	10.0
2.0582	387.864275241	13.0
2.0685	388.616662574	14.0
2.0787	389.359182169	11.0
2.089	390.106402151	15.0
2.0992	390.843822166	17.0
2.1094	391.578717892	15.0
2.1197	392.318265744	10.0
2.1299	393.048114251	14.0
2.1402	393.782582932	13.0
2.1504	394.507418883	25.0
2.1606	395.229773623	14.0
2.1709	395.956701099	9.0
2.1811	396.674094749	13.0
2.1914	397.396029731	21.0
2.2016	398.108496365	15.0
2.2118	398.818524129	20.0
2.2221	399.533046596	14.0
2.2323	400.238197932	18.0
2.2426	400.947813102	16.0
2.2528	401.6481215	17.0
2.263	402.346032649	17.0
2.2733	403.048361798	12.0
2.2835	403.741479734	11.0
2.2938	404.438985329	14.0
2.304	405.127342973	20.0
2.3142	405.813344276	23.0
2.3245	406.503688186	12.0
2.3347	407.184978073	13.0
2.345	407.870580743	12.0
2.3552	408.547191572	22.0
2.3654	409.22148627	17.0
2.3757	409.90004947	19.0
2.3859	410.569713152	13.0
2.3962	411.243616021	10.0
2.4064	411.908680493	14.0
2.4166	412.57146836	16.0
2.4269	413.238451886	12.0
2.4371	413.896687766	9.0
2.4474	414.55909049	10.0
2.4576	415.212805644	14.0
2.4678	415.864283044	13.0
2.4781	416.519884504	13.0
2.4883	417.166887596	13.0
2.4986	417.817986425	14.0
2.5088	418.460545938	20.0
2.519	419.100905883	14.0
2.5293	419.745319512	15.0
2.5395	420.381281503	12.0
2.5498	421.021269338	11.0
2.56	421.652863581	9.0
2.5702	422.282295791	14.0
2.5805	422.915712508	9.0
2.5907	423.540821816	10.0
2.601	424.169888265	13.0
2.6112	424.790704359	9.0
2.6214	425.409395316	14.0
2.6317	426.032002784	14.0
2.6419	426.646444609	9.0
2.6522	427.264776046	9.0
2.6624	427.874997921	12.0
2.6726	428.483130923	14.0
2.6829	429.095113603	17.0
2.6931	429.699069984	19.0
2.7034	430.306849603	13.0
2.7136	430.906658048	16.0
2.7238	431.504413268	12.0
2.7341	432.10595247	15.0
2.7443	432.699602343	20.0
2.7546	433.297010209	25.0
2.7648	433.88658293	15.0
2.775	434.474137464	16.0
2.7853	435.065411406	21.0
2.7955	435.648930651	14.0
2.8058	436.236143759	17.0
2.816	436.815655428	14.0
2.8262	437.393183351	30.0
2.8365	437.97436721	13.0
2.8467	438.547928705	18.0
2.857	439.125121028	17.0
2.8672	439.694743338	23.0
2.8774	440.262415753	16.0
2.8877	440.833681716	19.0
2.8979	441.397455391	20.0
2.9082	441.964797934	19.0
2.9184	442.524699645	17.0
2.9286	443.082684737	20.0
2.9389	443.644202053	31.0
2.9491	444.198354936	20.0
2.9594	444.756015785	17.0
2.9696	445.30636278	21.0
2.9798	445.854825863	17.0
2.9901	446.406760892	23.0
3.0003	446.951457163	24.0
3.0106	447.499601536	25.0
3.0208	448.040556866	16.0
3.031	448.579660432	20.0
3.0413	449.122176697	15.0
3.0515	449.657577732	22.0
3.0618	450.196368028	27.0
3.072	450.728091961	20.0
3.0822	451.257995731	28.0
3.0925	451.791253962	20.0
3.1027	452.317518384	16.0
3.113	452.84711423	23.0
3.1232	453.3697643	16.0
3.1334	453.890625268	22.0
3.1437	454.414783454	16.0
3.1539	454.93206718	19.0
3.1642	455.452625478	14.0
3.1744	455.966356531	19.0
3.1846	456.478329013	15.0
3.1949	456.993542445	26.0
3.2051	457.50199873	18.0
3.2154	458.013673707	16.0
3.2256	458.518637945	23.0
3.2358	459.021873623	14.0
3.2461	459.528294943	15.0
3.2563	460.028074428	19.0
3.2666	460.531017677	13.0
3.2768	461.027364707	15.0
3.287	461.522012673	23.0
3.2973	462.01979192	16.0
3.3075	462.511042673	13.0
3.3178	463.005403202	18.0
3.328	463.493280075	14.0
3.3382	463.979486879	14.0
3.3485	464.468771528	14.0
3.3587	464.951639094	12.0
3.369	465.437563365	24.0
3.3792	465.917114625	19.0
3.3894	466.395024316	16.0
3.3997	466.875959328	7.0
3.4099	467.350586764	19.0
3.4202	467.828218744	17.0
3.4304	468.299586466	25.0
3.4406	468.769340634	19.0
3.4509	469.242068496	17.0
3.4611	469.70859642	20.0
3.4714	470.178077615	19.0
3.4816	470.641401453	17.0
3.4918	471.103139271	11.0
3.5021	471.567800038	19.0
3.5123	472.026366668	12.0
3.5226	472.487836172	16.0
3.5328	472.943253394	16.0
3.543	473.397111662	20.0
3.5533	473.853842997	22.0
3.5635	474.304584193	16.0
3.5738	474.758178726	14.0
3.584	475.205824258	16.0
3.5942	475.651937439	13.0
3.6045	476.10087466	24.0
3.6147	476.543923963	17.0
3.625	476.989777909	15.0
3.6352	477.429784376	22.0
3.6454	477.868284641	21.0
3.6557	478.309560753	13.0
3.6659	478.745049425	10.0
3.6762	479.183294879	23.0
3.6864	479.61579264	18.0
3.6966	480.046809903	17.0
3.7069	480.480555643	16.0
3.7171	480.908612706	15.0
3.7274	481.339379506	20.0
3.7376	481.764496698	13.0
3.7478	482.188158657	22.0
3.7581	482.614502531	14.0
3.7683	483.035254804	13.0
3.7786	483.458670574	13.0
3.7888	483.876533146	12.0
3.799	484.292965318	19.0
3.8093	484.712033639	16.0
3.8195	485.12560578	16.0
3.8298	485.541795964	25.0
3.84	485.952527716	11.0
3.8502	486.361853478	15.0
3.8605	486.773770403	12.0
3.8707	487.18028494	7.0
3.881	487.589372844	15.0
3.8912	487.993095463	17.0
3.9014	488.395436085	18.0
3.9117	488.800323652	19.0
3.9219	489.199901023	11.0
3.9322	489.602007847	13.0
3.9424	489.998840944	14.0
3.9526	490.394315628	16.0
3.9629	490.792293794	25.0
3.9731	491.185052381	19.0
3.9834	491.580297257	15.0
3.9936	491.970358402	16.0
4.0038	492.359084315	15.0
4.0141	492.750270988	17.0
4.0243	493.136327155	12.0
4.0346	493.524827181	14.0
4.0448	493.908231937	12.0
4.055	494.290324247	18.0
4.0653	494.674835323	13.0
4.0755	495.054303446	12.0
4.0858	495.436173724	16.0
4.096	495.813035682	13.0
4.1062	496.188607591	16.0
4.1165	496.56655699	19.0
4.1267	496.939549494	16.0
4.137	497.31490316	12.0
4.1472	497.685333973	12.0
4.1574	498.054496752	16.0
4.1677	498.425996449	12.0
4.1779	498.79262384	10.0
4.1882	499.1615721	11.0
4.1984	499.525681515	11.0
4.2086	499.888544535	15.0
4.2189	500.253704595	19.0
4.2291	500.614075493	12.0
4.2394	500.976727655	12.0
4.2496	501.334623548	16.0
4.2598	501.691294315	7.0
4.2701	502.050222922	20.0
4.2803	502.404444095	15.0
4.2906	502.760907602	9.0
4.3008	503.112696005	16.0
4.311	503.463280189	18.0
4.3213	503.816083684	10.0
4.3315	504.164260077	19.0
4.3418	504.514640538	20.0
4.352	504.860425676	13.0
4.3622	505.205027146	16.0
4.3725	505.551810052	19.0
4.3827	505.894044819	14.0
4.393	506.238446042	18.0
4.4032	506.578330361	17.0
4.4134	506.91705121	12.0
4.4237	507.25791627	20.0
4.4339	507.594310805	12.0
4.4442	507.932834825	9.0
4.4544	508.266919022	13.0
4.4646	508.599859603	10.0
4.4749	508.934907805	8.0
4.4851	509.265561771	13.0
4.4954	509.598308882	11.0
4.5056	509.926691936	13.0
4.5158	510.253950891	9.0
4.5261	510.583281499	15.0
4.5363	510.908292858	8.0
4.5466	511.235361644	10.0
4.5568	511.558140845	11.0
4.567	511.879815129	6.0
4.5773	512.203525714	7.0
4.5875	512.522990759	14.0
4.5978	512.844478119	17.0
4.608	513.161749097	6.0
4.6182	513.477934013	8.0
4.6285	513.796120481	19.0
4.6387	514.110133858	10.0
4.649	514.42613504	14.0
4.6592	514.737991792	7.0
4.6694	515.048781016	6.0
4.6797	515.361537636	10.0
4.6899	515.670192378	9.0
4.7002	515.980801004	11.0
4.7104	516.287335924	10.0
4.7206	516.592821534	8.0
4.7309	516.900240965	7.0
4.7411	517.203628518	13.0
4.7514	517.508936611	18.0
4.7616	517.810240516	12.0
4.7718	518.110513017	6.0
4.7821	518.412686339	11.0
4.7923	518.710896587	4.0
4.8026	519.010994601	4.0
4.8128	519.307156758	5.0
4.823	519.602305113	6.0
4.8333	519.899321851	4.0
4.8435	520.192443144	6.0
4.8538	520.487419989	7.0
4.864	520.778528143	6.0
4.8742	521.068639794	8.0
4.8845	521.360587944	5.0
4.8947	521.648707126	7.0
4.905	521.938650194	1.0
4.9152	522.224790591	5.0
4.9254	522.50995149	7.0
4.9357	522.796917549	3.0
4.9459	523.08011998	1.0
4.9562	523.365115173	4.0
4.9664	523.646372587	4.0
4.9766	523.926667218	3.0
4.9869	524.208736205	9.0
4.9971	524.48710579	6.0
5.0074	524.767237543	3.0
5.0176	525.043695302	3.0
5.0278	525.319206709	2.0
5.0381	525.596462192	6.0
5.0483	525.870081403	4.0
5.0586	526.145432711	2.0
5.0688	526.417172722	4.0
5.079	526.68798253	3.0
5.0893	526.960506651	4.0
5.0995	527.229456553	1.0
5.1098	527.500108994	0.0
5.12	527.767211765	1.0
5.1302	528.033400207	2.0
5.1405	528.301273706	3.0
5.1507	528.565633982	3.0
5.161	528.831667742	2.0
5.1712	529.094212407	1.0
5.1814	529.355858346	4.0
5.1917	529.619160588	1.0
5.2019	529.879009558	3.0
5.2122	530.140503455	0.0
5.2224	530.398567799	2.0
5.2326	530.655748753	2.0
5.2429	530.914557744	2.0
5.2531	531.169972395	1.0
5.2634	531.427003902	1.0
5.2736	531.68066438	0.0
5.2838	531.933456544	0.0
5.2941	532.187848964	2.0
5.3043	532.438904966	1.0
5.3146	532.691550233	2.0
5.3248	532.940881998	1.0
5.335	533.189360267	0.0
5.3453	533.439411483	1.0
5.3555	533.686183217	0.0
5.3658	533.934517096	3.0
5.376	534.179594017	1.0
5.3862	534.423832007	0.0
5.3965	534.669616102	3.0
5.4067	534.912176679	0.0
5.417	535.156272744	0.0
5.4272	535.39716743	2.0
5.4374	535.637237501	3.0
5.4477	535.878827293	2.0
5.4579	536.117248577	0.0
5.4682	536.357179145	0.0
5.4784	536.593962966	0.0
5.4886	536.829936244	1.0
5.4989	537.067403309	1.0
5.5091	537.301755937	1.0
5.5194	537.537592092	1.0
5.5296	537.7703352	0.0
5.5398	538.002281597	0.0
5.5501	538.235696289	1.0
5.5603	538.466049692	0.0
5.5706	538.697861306	1.0
5.5808	538.926632656	3.0
5.591	539.15462089	1.0
5.6013	539.384052363	0.0
5.6115	539.610474788	2.0
5.6218	539.838330539	2.0
5.632	540.063197908	1.0
5.6422	540.287295526	0.0
5.6525	540.512811753	1.0
5.6627	540.735370282	3.0
5.673	540.959337678	2.0
5.6832	541.180367688	1.0
5.6934	541.400641082	0.0
5.7037	541.622308878	1.0
5.7139	541.841069448	1.0
5.7242	542.061214842	2.0
5.7344	542.278472978	2.0
5.7446	542.494987409	1.0
5.7549	542.712872446	0.0
5.7651	542.92789987	0.0
5.7754	543.144288486	3.0
5.7856	543.357839113	0.0
5.7958	543.570658729	1.0
5.8061	543.78482556	0.0
5.8163	543.996183543	0.0
5.8266	544.20887949	1.0
5.8368	544.418785879	1.0
5.847	544.627973729	0.0
5.8573	544.838485807	1.0
5.8675	545.046236968	1.0
5.8778	545.255303261	0.0
5.888	545.461627599	2.0
5.8982	545.667245662	0.0
5.9085	545.874165353	0.0
5.9187	546.078371243	1.0
5.929	546.283869822	1.0
5.9392	546.486673238	1.0
5.9494	546.688782431	2.0
5.9597	546.892171039	1.0
5.9699	547.092892158	1.0
5.9802	547.294883906	1.0
5.9904	547.494226485	0.0
6.0006	547.692886686	1.0
6.0109	547.892804471	0.0
6.0211	548.090100286	0.0
6.0314	548.288645047	6.0
6.0416	548.484585847	0.0
6.0518	548.679855914	2.0
6.0621	548.876362104	1.0
6.0723	549.070291068	1.0
6.0826	549.265447665	1.0
6.0928	549.458044737	0.0
6.103	549.649982524	2.0
6.1133	549.843135337	0.0
6.1235	550.033754906	0.0
6.1338	550.225581158	1.0
6.144	550.414891563	0.0
6.1542	550.603553933	0.0
6.1645	550.793410597	1.0
6.1747	550.980777245	1.0
6.185	551.169329984	3.0
6.1952	551.355409809	1.0
6.2054	551.540852658	1.0
6.2157	551.72746942	0.0
6.2259	551.911638658	1.0
6.2362	552.096973747	0.0
6.2464	552.279878122	3.0
6.2566	552.462156391	1.0
6.2669	552.645588539	1.0
6.2771	552.826614932	0.0
6.2874	553.008787279	1.0
6.2976	553.188570394	0.0
6.3078	553.367738086	0.0
6.3181	553.548039967	1.0
6.3283	553.725977146	2.0
6.3386	553.905040725	1.0
6.3488	554.081755842	1.0
6.359	554.25786604	1.0
6.3693	554.435091071	1.0
6.3795	554.609991754	0.0
6.3898	554.785999615	1.0
6.4	554.959699091	0.0
6.4102	555.13280397	1.0
6.4205	555.307004658	0.0
6.4307	555.478920664	1.0
6.441	555.651924952	1.0
6.4512	555.822660248	0.0
6.4614	555.992811095	1.0
6.4717	556.16403905	2.0
6.4819	556.333021311	0.0
6.4922	556.503073283	1.0
6.5024	556.670894984	2.0
6.5126	556.838142208	1.0
6.5229	557.00644816	1.0
6.5331	557.17254674	0.0
6.5434	557.339696778	0.0
6.5536	557.504654603	1.0
6.5638	557.669047755	0.0
6.5741	557.834481568	0.0
6.5843	557.997745678	1.0
6.5946	558.162043302	0.0
6.6048	558.324186124	1.0
6.615	558.485773908	1.0
6.6253	558.648384596	0.0
6.6355	558.808862605	0.0
6.6458	558.970356492	1.0
6.656	559.129732348	0.0
6.6662	559.288562639	0.0
6.6765	559.448398377	1.0
6.6867	559.606137831	0.0
6.697	559.764875827	0.0
6.7072	559.921531936	1.0
6.7174	560.07765179	0.0
6.7277	560.234759933	0.0
6.7379	560.389807565	2.0
6.7482	560.545836698	0.0
6.7584	560.699819473	0.0
6.7686	560.853275143	0.0
6.7789	561.007702237	1.0
6.7891	561.160103984	0.0
6.7994	561.313470482	2.0
6.8096	561.464825542	1.0
6.8198	561.615662493	0.0
6.8301	561.76745429	0.0
6.8403	561.917255303	1.0
6.8506	562.068004603	0.0
6.8608	562.216776791	0.0
6.871	562.365039711	0.0
6.8813	562.514241183	0.0
6.8915	562.661485843	0.0
6.9018	562.809662608	0.0
6.912	562.955896	1.0
6.9222	563.101628816	1.0
6.9325	563.248284167	0.0
6.9427	563.393016098	0.0
6.953	563.538664228	0.0
6.9632	563.682402149	2.0
6.9734	563.825648036	1.0
6.9837	563.969800715	0.0
6.9939	564.112062797	0.0
7.0042	564.255225444	0.0
7.0144	564.396510479	0.0
7.0246	564.537311876	0.0
7.0349	564.679004591	0.0
7.0451	564.818838973	0.0
7.0554	564.959558551	0.0
7.0656	565.098432558	1.0
7.0758	565.236831181	0.0
7.0861	565.376105912	1.0
7.0963	565.513554021	1.0
7.1066	565.651872221	0.0
7.1168	565.788376345	0.0
7.127	565.924413197	0.0
7.1373	566.061311206	0.0
7.1475	566.196413765	1.0
7.1578	566.332371566	2.0
7.168	566.466546249	1.0
7.1782	566.600261634	0.0
7.1885	566.73482348	1.0
7.1987	566.867620515	0.0
7.209	567.001258198	0.0
7.2192	567.133143192	0.0
7.2294	567.264576725	1.0
7.2397	567.396842274	2.0
7.2499	567.52737313	0.0
7.2602	567.658730288	2.0
7.2704	567.788364665	0.0
7.2806	567.917555286	0.0
7.2909	568.047563726	1.0
7.3011	568.175867074	1.0
7.3114	568.304982623	0.0
7.3216	568.432404791	3.0
7.3318	568.559390776	0.0
7.3421	568.687180623	0.0
7.3523	568.813294476	0.0
7.3626	568.94020667	1.0
7.3728	569.06545438	1.0
7.383	569.190273351	2.0
7.3933	569.315882466	2.0
7.4035	569.439844187	0.0
7.4138	569.564590626	1.0
7.424	569.687700985	4.0
7.4342	569.810389922	0.0
7.4445	569.933855518	2.0
7.4547	570.055701834	0.0
7.465	570.178319476	0.0
7.4752	570.299328959	0.0
7.4854	570.41992421	1.0
7.4957	570.541282868	1.0
7.5059	570.661049878	2.0
7.5162	570.781575051	1.0
7.5264	570.900519509	1.0
7.5366	571.019056803	3.0
7.5469	571.138344476	0.0
7.5571	571.256067664	0.0
7.5674	571.374536077	0.0
7.5776	571.491450748	0.0
7.5878	571.607965205	0.0
7.5981	571.725217236	2.0
7.6083	571.840931478	2.0
7.6186	571.957378229	6.0
7.6288	572.072297753	0.0
7.639	572.186823892	0.0
7.6493	572.302075018	3.0
7.6595	572.415814598	2.0
7.6698	572.530274187	4.0
7.68	572.64323261	0.0
7.6902	572.755804362	1.0
7.7005	572.869088729	1.0
7.7107	572.980887345	1.0
7.721	573.093393681	1.0
7.7312	573.204424471	1.0
7.7414	573.315075187	1.0
7.7517	573.426426357	0.0
7.7619	573.536317131	1.0
7.7722	573.646903548	0.0
7.7824	573.756039599	4.0
7.7926	573.864802061	1.0
7.8029	573.974253026	1.0
7.8131	574.082268514	0.0
7.8234	574.190967776	0.0
7.8336	574.298241421	0.0
7.8438	574.405147853	0.0
7.8541	574.512731038	0.0
7.8643	574.618903244	0.0
7.8746	574.725747553	0.0
7.8848	574.831190575	0.0
7.895	574.93627265	1.0
7.9053	575.042019929	2.0
7.9155	575.146380307	1.0
7.9258	575.25140132	0.0
7.936	575.355044958	0.0
7.9462	575.458333809	0.0
7.9565	575.562276512	1.0
7.9667	575.664855981	5.0
7.977	575.768084812	1.0
7.9872	575.869959771	2.0
7.9974	575.971486	0.0
8.0077	576.073654921	1.0
8.0179	576.174483873	0.0
8.0282	576.275951105	0.0
8.0384	576.37608757	0.0
8.0486	576.475881254	2.0
8.0589	576.576306664	3.0
8.0691	576.675414972	1.0
8.0794	576.775150666	0.0
8.0896	576.873578303	2.0
