TL-DOS Lehrstuhlversuch
detector=R1408106
job_number=2015-10-22-012
irradiation_dose [mSv]=5.0

[BEGIN DATA]
time [sec] 	 temperature [K] 	 photoncount 
0.0	69.4623509739	0.0
0.0102	72.0233396263	0.0
0.0205	74.5953029163	0.0
0.0307	77.1283761731	2.0
0.041	79.6723044413	3.0
0.0512	82.1777665871	0.0
0.0614	84.6696028569	2.0
0.0717	87.1721174246	1.0
0.0819	89.6367920765	1.0
0.0922	92.1120286303	1.0
0.1024	94.5498377325	1.0
0.1126	96.9743888876	0.0
0.1229	99.4093300029	0.0
0.1331	101.807452964	1.0
0.1434	104.215852632	2.0
0.1536	106.587835473	1.0
0.1638	108.946918361	3.0
0.1741	111.316110658	2.0
0.1843	113.649478972	0.0
0.1946	115.992846499	3.0
0.2048	118.300780534	1.0
0.215	120.596162943	2.0
0.2253	122.901381785	1.0
0.2355	125.171743971	0.0
0.2458	127.451835369	0.0
0.256	129.697450059	1.0
0.2662	131.930852044	0.0
0.2765	134.173824856	0.0
0.2867	136.382882219	0.0
0.297	138.601406085	0.0
0.3072	140.786384189	0.0
0.3174	142.95947936	0.0
0.3277	145.141886923	0.0
0.3379	147.29129483	0.0
0.3482	149.449913623	0.0
0.3584	151.575892465	0.0
0.3686	153.690309239	0.0
0.3789	155.813786949	2.0
0.3891	157.905156069	4.0
0.3994	160.005487359	0.0
0.4096	162.07406005	0.0
0.4198	164.131382873	1.0
0.4301	166.197521969	0.0
0.4403	168.232419476	0.0
0.4506	170.276037156	1.0
0.4608	172.288753788	0.0
0.471	174.290524326	0.0
0.4813	176.300873076	1.0
0.4915	178.28082383	0.0
0.5018	180.269259293	0.0
0.512	182.227628105	0.0
0.5222	184.175346391	0.0
0.5325	186.131411259	0.0
0.5427	188.057898945	0.0
0.553	189.992642233	0.0
0.5632	191.898130737	0.0
0.5734	193.793256303	0.0
0.5837	195.696503074	0.0
0.5939	197.570971313	0.0
0.6042	199.453472234	0.0
0.6144	201.307508316	1.0
0.6246	203.151461281	0.0
0.6349	205.003316162	0.0
0.6451	206.827169594	0.0
0.6554	208.658838809	0.0
0.6656	210.462811797	0.0
0.6758	212.256973937	0.0
0.6861	214.058824622	0.0
0.6963	215.83342996	0.0
0.7066	217.615640037	1.0
0.7168	219.370901747	0.0
0.727	221.116617523	0.0
0.7373	222.869814237	0.0
0.7475	224.596501289	1.0
0.7578	226.330587735	1.0
0.768	228.03845348	0.0
0.7782	229.737031052	0.0
0.7885	231.44288756	0.0
0.7987	233.122950226	0.0
0.809	234.810212486	0.0
0.8192	236.471962062	0.0
0.8294	238.124674266	1.0
0.8397	239.784468859	0.0
0.8499	241.419166101	0.0
0.8602	243.060868531	0.0
0.8704	244.677747178	0.0
0.8806	246.285832481	0.0
0.8909	247.900808933	0.0
0.9011	249.491365718	0.0
0.9114	251.088738536	0.0
0.9216	252.661957867	1.0
0.9318	254.226621295	1.0
0.9421	255.797989795	2.0
0.9523	257.345598013	0.0
0.9626	258.899838217	0.0
0.9728	260.430577131	0.0
0.983	261.952991171	2.0
0.9933	263.481929231	0.0
1.0035	264.987748589	1.0
1.0138	266.500020854	2.0
1.024	267.989426418	0.0
1.0342	269.470731896	1.0
1.0445	270.958385232	4.0
1.0547	272.423544123	1.0
1.065	273.894981678	0.0
1.0752	275.344169982	0.0
1.0854	276.785476922	2.0
1.0957	278.232960314	1.0
1.1059	279.658556659	0.0
1.1162	281.090262132	1.0
1.1264	282.500319133	2.0
1.1366	283.902707584	1.0
1.1469	285.311105708	1.0
1.1571	286.698207786	0.0
1.1674	288.09125403	4.0
1.1776	289.463236359	2.0
1.1878	290.827757207	3.0
1.1981	292.198125453	2.0
1.2083	293.547772693	1.0
1.2186	294.903203594	3.0
1.2288	296.238139353	1.0
1.239	297.565815107	1.0
1.2493	298.899180366	4.0
1.2595	300.212384133	7.0
1.2698	301.531215388	4.0
1.28	302.830104916	2.0
1.2902	304.121930475	6.0
1.3005	305.419291911	3.0
1.3107	306.697036258	10.0
1.321	307.98025614	5.0
1.3312	309.244072766	4.0
1.3414	310.501016165	5.0
1.3517	311.763345959	8.0
1.3619	313.006588371	9.0
1.3722	314.255158466	2.0
1.3824	315.484849235	10.0
1.3926	316.70785237	12.0
1.4029	317.936096456	11.0
1.4131	319.145768561	14.0
1.4234	320.36062449	12.0
1.4336	321.557110877	9.0
1.4438	322.74709021	10.0
1.4541	323.942168977	9.0
1.4643	325.119177249	18.0
1.4746	326.301229368	18.0
1.4848	327.465407965	22.0
1.495	328.623255213	14.0
1.5053	329.786064198	16.0
1.5155	330.931290632	20.0
1.5258	332.081424718	25.0
1.536	333.214167906	25.0
1.5462	334.340750707	25.0
1.5565	335.472161267	29.0
1.5667	336.586464042	24.0
1.577	337.705541954	21.0
1.5872	338.807698559	35.0
1.5974	339.903861122	34.0
1.6077	341.004721083	45.0
1.6179	342.088935208	34.0
1.6282	343.17779553	54.0
1.6384	344.250191459	44.0
1.6486	345.316755197	49.0
1.6589	346.387889494	63.0
1.6691	347.44282743	55.0
1.6794	348.502286104	62.0
1.6896	349.545724961	77.0
1.6998	350.583489108	75.0
1.7101	351.6257004	94.0
1.7203	352.652152668	94.0
1.7306	353.683003604	89.0
1.7408	354.698267294	96.0
1.751	355.708009504	98.0
1.7613	356.722078776	121.0
1.7715	357.720814552	128.0
1.7818	358.723830224	128.0
1.792	359.711679538	133.0
1.8022	360.694156466	143.0
1.8125	361.680843615	177.0
1.8227	362.652611306	134.0
1.833	363.628543327	177.0
1.8432	364.589718515	171.0
1.8534	365.545666383	181.0
1.8637	366.505710787	175.0
1.8739	367.451238592	209.0
1.8842	368.40081828	204.0
1.8944	369.336039604	244.0
1.9046	370.266174756	258.0
1.9149	371.200295828	276.0
1.9251	372.120292282	263.0
1.9354	373.044231209	304.0
1.9456	373.954199479	324.0
1.9558	374.859218916	351.0
1.9661	375.768116644	352.0
1.9763	376.66327115	385.0
1.9866	377.562261673	387.0
1.9968	378.447658779	441.0
2.007	379.328240681	442.0
2.0173	380.212596151	486.0
2.0275	381.083579497	501.0
2.0378	381.958295279	544.0
2.048	382.819784696	604.0
2.0582	383.67658893	594.0
2.0685	384.537064838	611.0
2.0787	385.384529699	600.0
2.089	386.235626212	655.0
2.0992	387.073853501	706.0
2.1094	387.907522117	681.0
2.1197	388.744763265	735.0
2.1299	389.569344692	761.0
2.1402	390.397459708	795.0
2.1504	391.213052998	830.0
2.1606	392.02421071	816.0
2.1709	392.838844486	869.0
2.1811	393.641160383	870.0
2.1914	394.446914454	906.0
2.2016	395.240484914	970.0
2.2118	396.029739565	941.0
2.2221	396.82237642	962.0
2.2323	397.603028006	1000.0
2.2426	398.387024927	977.0
2.2528	399.159167221	1000.0
2.263	399.927110244	990.0
2.2733	400.698344143	1038.0
2.2835	401.457916401	1041.0
2.2938	402.220743664	1117.0
2.304	402.972036401	1001.0
2.3142	403.719243257	975.0
2.3245	404.469652127	1058.0
2.3347	405.208714247	1048.0
2.345	405.950943479	1057.0
2.3552	406.681949644	1014.0
2.3654	407.408980254	1022.0
2.3757	408.139126418	1011.0
2.3859	408.858232219	981.0
2.3962	409.580419613	966.0
2.4064	410.291686987	1010.0
2.4166	410.999086156	929.0
2.4269	411.709516751	850.0
2.4371	412.409205098	860.0
2.4474	413.111891829	824.0
2.4576	413.803953403	854.0
2.4678	414.492251223	739.0
2.4781	415.183498615	767.0
2.4883	415.864293822	728.0
2.4986	416.54800645	691.0
2.5088	417.221380824	675.0
2.519	417.891093074	690.0
2.5293	418.56367525	633.0
2.5395	419.226087475	639.0
2.5498	419.891338343	620.0
2.56	420.546530113	614.0
2.5702	421.198158645	549.0
2.5805	421.852579608	581.0
2.5907	422.497105231	575.0
2.601	423.144392848	559.0
2.6112	423.781892985	531.0
2.6214	424.415926099	585.0
2.6317	425.052676242	546.0
2.6419	425.679798241	547.0
2.6522	426.309607655	559.0
2.6624	426.929893872	576.0
2.6726	427.546806683	566.0
2.6829	428.166363159	598.0
2.6931	428.776551471	611.0
2.7034	429.389354631	630.0
2.7136	429.992891742	636.0
2.7238	430.593146537	659.0
2.7341	431.195973611	666.0
2.7443	431.789685483	698.0
2.7546	432.385941597	722.0
2.7648	432.973181866	718.0
2.775	433.557228448	795.0
2.7853	434.143777852	775.0
2.7955	434.721458184	795.0
2.8058	435.301614058	817.0
2.816	435.872997536	804.0
2.8262	436.441273562	828.0
2.8365	437.011984829	832.0
2.8467	437.57406651	885.0
2.857	438.138556886	887.0
2.8672	438.69451174	923.0
2.8774	439.247443052	953.0
2.8877	439.802743847	975.0
2.8979	440.349648074	979.0
2.9082	440.898895956	945.0
2.9184	441.439838794	990.0
2.9286	441.977839732	958.0
2.9389	442.518146172	1025.0
2.9491	443.050282769	1080.0
2.9594	443.584699739	1028.0
2.9696	444.111035919	1061.0
2.9798	444.634509636	1090.0
2.9901	445.160226602	1101.0
3.0003	445.677994329	1105.0
3.0106	446.197980853	1097.0
3.0208	446.710104787	1122.0
3.031	447.219443551	1110.0
3.0413	447.730964991	1112.0
3.0515	448.23475184	1081.0
3.0618	448.740697572	1124.0
3.072	449.238993022	1142.0
3.0822	449.734578508	1138.0
3.0925	450.232287733	1081.0
3.1027	450.722471218	1118.0
3.113	451.214755292	1082.0
3.1232	451.699595658	1132.0
3.1334	452.181799235	1037.0
3.1437	452.666069205	1066.0
3.1539	453.143016646	1076.0
3.1642	453.622007957	1023.0
3.1744	454.093756556	1074.0
3.1846	454.562939565	1101.0
3.1949	455.03413317	1031.0
3.2051	455.498201971	1044.0
3.2154	455.964259452	1047.0
3.2256	456.423269791	966.0
3.2358	456.879783817	957.0
3.2461	457.338254148	973.0
3.2563	457.78979206	1002.0
3.2666	458.243264954	995.0
3.2768	458.689880994	904.0
3.287	459.134068127	942.0
3.2973	459.580158741	960.0
3.3075	460.019504127	969.0
3.3178	460.460732245	919.0
3.328	460.89528866	879.0
3.3382	461.327481753	842.0
3.3485	461.76152693	944.0
3.3587	462.189009014	937.0
3.369	462.618322993	921.0
3.3792	463.041145419	893.0
3.3894	463.461668339	844.0
3.3997	463.883993332	847.0
3.4099	464.29993245	871.0
3.4202	464.717653998	900.0
3.4304	465.12905928	886.0
3.4406	465.538227147	908.0
3.4509	465.949148426	941.0
3.4611	466.353856264	909.0
3.4714	466.760298402	894.0
3.4816	467.160594827	850.0
3.4918	467.558714253	904.0
3.5021	467.958539745	848.0
3.5123	468.352319573	830.0
3.5226	468.74778687	911.0
3.5328	469.137274402	882.0
3.543	469.524643719	882.0
3.5533	469.913673035	919.0
3.5635	470.296819932	930.0
3.5738	470.681608734	832.0
3.584	471.060579238	891.0
3.5942	471.437488723	841.0
3.6045	471.816013383	916.0
3.6147	472.188814463	919.0
3.625	472.563213112	868.0
3.6352	472.931950571	869.0
3.6454	473.298682662	903.0
3.6557	473.666986315	833.0
3.6659	474.029720938	944.0
3.6762	474.394009992	893.0
3.6864	474.75279072	880.0
3.6966	475.10962023	804.0
3.7069	475.467978867	892.0
3.7171	475.820918849	834.0
3.7274	476.17537129	868.0
3.7376	476.524464141	850.0
3.7478	476.871658462	836.0
3.7581	477.220340619	832.0
3.7683	477.563750437	828.0
3.7786	477.908631875	862.0
3.7888	478.248298443	837.0
3.799	478.586117746	882.0
3.8093	478.92538471	804.0
3.8195	479.259521701	813.0
3.8298	479.595090574	795.0
3.84	479.92558539	837.0
3.8502	480.254282822	862.0
3.8605	480.584388824	851.0
3.8707	480.909503374	807.0
3.881	481.236011141	830.0
3.8912	481.557581864	831.0
3.9014	481.877403734	798.0
3.9117	482.198596142	813.0
3.9219	482.514931876	798.0
3.9322	482.832623209	807.0
3.9424	483.145510807	771.0
3.9526	483.456696777	754.0
3.9629	483.769216276	723.0
3.9731	484.077010243	739.0
3.9834	484.386123203	758.0
3.9936	484.690562142	700.0
4.0038	484.993345399	738.0
4.0141	485.297426177	737.0
4.0243	485.596909023	778.0
4.0346	485.897675247	733.0
4.0448	486.193893658	764.0
4.055	486.488501095	719.0
4.0653	486.784371016	701.0
4.0755	487.07576716	730.0
4.0858	487.368412028	726.0
4.096	487.656631884	759.0
4.1062	487.943284265	682.0
4.1165	488.231165042	766.0
4.1267	488.514692843	797.0
4.137	488.799435649	703.0
4.1472	489.079872928	714.0
4.1574	489.358785059	732.0
4.1677	489.638892414	731.0
4.1779	489.914764335	685.0
4.1882	490.191818453	723.0
4.1984	490.464683303	682.0
4.2086	490.736064186	674.0
4.2189	491.008608021	703.0
4.2291	491.277030787	704.0
4.2394	491.546603828	731.0
4.2496	491.812100721	731.0
4.2598	492.076153717	749.0
4.2701	492.341338264	728.0
4.2803	492.602513018	690.0
4.2906	492.864806989	680.0
4.3008	493.123134876	766.0
4.311	493.380057855	691.0
4.3213	493.638081829	687.0
4.3315	493.892204285	723.0
4.3418	494.147415736	746.0
4.352	494.398768196	713.0
4.3622	494.648753684	680.0
4.3725	494.899810437	693.0
4.3827	495.147071023	719.0
4.393	495.395391197	718.0
4.4032	495.639956583	711.0
4.4134	495.883191907	747.0
4.4237	496.127469571	745.0
4.4339	496.368053571	712.0
4.4442	496.609668549	710.0
4.4544	496.847630126	765.0
4.4646	497.084297556	754.0
4.4749	497.32197918	742.0
4.4851	497.556066878	668.0
4.4954	497.791157715	721.0
4.5056	498.022693801	674.0
4.5158	498.252970685	687.0
4.5261	498.484234377	709.0
4.5363	498.712001187	712.0
4.5466	498.940744049	693.0
4.5568	499.166028146	701.0
4.567	499.390087042	682.0
4.5773	499.615106101	654.0
4.5875	499.836722702	709.0
4.5978	500.059288998	712.0
4.608	500.278489924	712.0
4.6182	500.496498733	708.0
4.6285	500.715441777	631.0
4.6387	500.931074237	673.0
4.649	501.147630749	693.0
4.6592	501.360912763	664.0
4.6694	501.573034849	623.0
4.6797	501.786065945	691.0
4.6899	501.995875849	629.0
4.7002	502.206584855	659.0
4.7104	502.414107781	631.0
4.7206	502.620502099	609.0
4.7309	502.827780882	629.0
4.7411	503.031925453	585.0
4.7514	503.236944848	579.0
4.7616	503.438864193	590.0
4.7718	503.639685407	612.0
4.7821	503.841367202	569.0
4.7923	504.039999416	553.0
4.8026	504.239482831	542.0
4.8128	504.435949906	588.0
4.823	504.631348501	532.0
4.8333	504.82758444	524.0
4.8435	505.020853143	494.0
4.8538	505.214950063	533.0
4.864	505.40611209	500.0
4.8742	505.596234489	479.0
4.8845	505.787171622	464.0
4.8947	505.97522164	419.0
4.905	506.164077512	430.0
4.9152	506.35007774	412.0
4.9254	506.535066412	444.0
4.9357	506.720847817	450.0
4.9459	506.903820068	452.0
4.9562	507.087576412	402.0
4.9664	507.26855422	412.0
4.9766	507.448547787	378.0
4.9869	507.629312682	376.0
4.9971	507.807344275	368.0
5.0074	507.986138789	357.0
5.0176	508.162229795	339.0
5.0278	508.337363136	340.0
5.0381	508.513246977	303.0
5.0483	508.686471322	258.0
5.0586	508.860437987	302.0
5.0688	509.031774144	314.0
5.079	509.202178496	283.0
5.0893	509.373313083	267.0
5.0995	509.541859985	235.0
5.1098	509.711129164	255.0
5.12	509.877838865	237.0
5.1302	510.04364192	235.0
5.1405	510.210155493	218.0
5.1507	510.374151255	220.0
5.161	510.53884979	220.0
5.1712	510.701057958	197.0
5.1814	510.862383962	203.0
5.1917	511.024401299	190.0
5.2019	511.183968811	158.0
5.2122	511.344220119	158.0
5.2224	511.502048307	138.0
5.2326	511.659018151	146.0
5.2429	511.81666066	152.0
5.2531	511.971919494	152.0
5.2634	512.127843661	124.0
5.2736	512.281410137	117.0
5.2838	512.434141447	135.0
5.2941	512.587527257	123.0
5.3043	512.738593759	123.0
5.3146	512.890307627	104.0
5.3248	513.039727467	109.0
5.335	513.188334692	90.0
5.3453	513.337578745	98.0
5.3555	513.484566115	94.0
5.3658	513.632183372	79.0
5.376	513.777568544	83.0
5.3862	513.922163044	81.0
5.3965	514.067377176	69.0
5.4067	514.21039556	74.0
5.417	514.354026823	68.0
5.4272	514.495486273	53.0
5.4374	514.6361764	66.0
5.4477	514.777469428	51.0
5.4579	514.916625998	51.0
5.4682	515.056378898	64.0
5.4784	515.194018628	55.0
5.4886	515.330909809	54.0
5.4989	515.468387612	53.0
5.5091	515.603786646	42.0
5.5194	515.739765907	43.0
5.5296	515.873689059	36.0
5.5398	516.006883874	29.0
5.5501	516.14064947	28.0
5.5603	516.272392429	37.0
5.5706	516.404699948	31.0
5.5808	516.535006877	28.0
5.591	516.664605136	34.0
5.6013	516.794758765	40.0
5.6115	516.922944371	36.0
5.6218	517.051679293	23.0
5.632	517.178467646	28.0
5.6422	517.304566464	23.0
5.6525	517.431205655	24.0
5.6627	517.555929966	21.0
5.673	517.681188759	15.0
5.6832	517.804553544	23.0
5.6934	517.927247414	11.0
5.7037	518.050467066	18.0
5.7139	518.171823543	20.0
5.7242	518.293700071	14.0
5.7344	518.413733733	18.0
5.7446	518.533114596	13.0
5.7549	518.653007043	17.0
5.7651	518.771086626	15.0
5.7754	518.889672216	16.0
5.7856	519.006464703	8.0
5.7958	519.122622017	13.0
5.8061	519.239277102	14.0
5.8163	519.354168274	16.0
5.8266	519.46955179	18.0
5.8368	519.58319062	16.0
5.847	519.696211429	8.0
5.8573	519.809716567	10.0
5.8675	519.921505422	11.0
5.8778	520.033773327	11.0
5.888	520.144343656	11.0
5.8982	520.254312652	15.0
5.9085	520.3647529	21.0
5.9187	520.473523207	9.0
5.929	520.582759629	9.0
5.9392	520.690344314	10.0
5.9494	520.797343903	7.0
5.9597	520.904802018	8.0
5.9699	521.010635286	10.0
5.9802	521.116922082	10.0
5.9904	521.221601741	10.0
6.0006	521.325712103	11.0
6.0109	521.430268611	8.0
6.0211	521.533244145	6.0
6.0314	521.636660962	5.0
6.0416	521.738514037	9.0
6.0518	521.839813189	10.0
6.0621	521.941546438	9.0
6.0723	522.041741404	3.0
6.0826	522.142365737	5.0
6.0928	522.241468554	6.0
6.103	522.340032403	9.0
6.1133	522.439018629	2.0
6.1235	522.536508108	7.0
6.1338	522.63441536	9.0
6.144	522.73084218	7.0
6.1542	522.826744587	6.0
6.1645	522.923057965	8.0
6.1747	523.017915011	12.0
6.185	523.11317855	3.0
6.1952	523.207001632	6.0
6.2054	523.30031446	5.0
6.2157	523.394027163	6.0
6.2259	523.486322859	10.0
6.2362	523.579014071	3.0
6.2464	523.670303721	4.0
6.2566	523.761096896	5.0
6.2669	523.852279147	6.0
6.2771	523.942082654	6.0
6.2874	524.032270997	6.0
6.2976	524.121095625	6.0
6.3078	524.209437182	5.0
6.3181	524.29815731	8.0
6.3283	524.385535923	5.0
6.3386	524.47328898	5.0
6.3488	524.559715145	5.0
6.359	524.645671284	5.0
6.3693	524.731995772	4.0
6.3795	524.817014968	6.0
6.3898	524.902398498	4.0
6.4	524.986490964	6.0
6.4102	525.070126096	3.0
6.4205	525.154119631	6.0
6.4307	525.23684312	3.0
6.441	525.319921105	8.0
6.4512	525.401742888	4.0
6.4614	525.483119686	5.0
6.4717	525.564845209	7.0
6.4819	525.64533498	5.0
6.4922	525.726169675	5.0
6.5024	525.805782088	13.0
6.5126	525.884961531	5.0
6.5229	525.964480283	6.0
6.5331	526.042796652	5.0
6.5434	526.12144863	3.0
6.5536	526.198911331	4.0
6.5638	526.275952754	7.0
6.5741	526.353324323	7.0
6.5843	526.429525976	11.0
6.5946	526.506054176	5.0
6.6048	526.581425212	1.0
6.615	526.656386345	4.0
6.6253	526.73166871	3.0
6.6355	526.805812749	5.0
6.6458	526.880274518	4.0
6.656	526.953610368	7.0
6.6662	527.026547384	2.0
6.6765	527.099796958	7.0
6.6867	527.171938943	6.0
6.697	527.244390079	3.0
6.7072	527.315745699	2.0
6.7174	527.386713253	7.0
6.7277	527.457984926	3.0
6.7379	527.528178917	4.0
6.7482	527.598673711	3.0
6.7584	527.66810257	7.0
6.7686	527.737153843	4.0
6.7789	527.806501023	7.0
6.7891	527.87479962	7.0
6.7994	527.943390898	5.0
6.8096	528.010945024	2.0
6.8198	528.078131759	2.0
6.8301	528.145606411	7.0
6.8403	528.212060794	2.0
6.8506	528.278799955	5.0
6.8608	528.34452997	3.0
6.871	528.409902514	3.0
6.8813	528.4755552	5.0
6.8915	528.540215167	5.0
6.9018	528.605152223	4.0
6.912	528.669107381	9.0
6.9222	528.732714721	4.0
6.9325	528.796594639	4.0
6.9427	528.859508643	2.0
6.953	528.922692254	5.0
6.9632	528.984920481	1.0
6.9734	529.046810282	3.0
6.9837	529.1089653	4.0
6.9939	529.170180486	2.0
7.0042	529.231657999	1.0
7.0144	529.292205926	4.0
7.0246	529.352424564	5.0
7.0349	529.412901259	4.0
7.0451	529.4724635	6.0
7.0554	529.532280983	3.0
7.0656	529.591193981	5.0
7.0758	529.649786583	2.0
7.0861	529.708630272	5.0
7.0963	529.7665842	1.0
7.1066	529.824786479	4.0
7.1168	529.882108695	2.0
7.127	529.939119166	1.0
7.1373	529.996373945	2.0
7.1475	530.052762988	3.0
7.1578	530.109393676	4.0
7.168	530.165168065	1.0
7.1782	530.220639126	4.0
7.1885	530.276347899	3.0
7.1987	530.331214313	1.0
7.209	530.386315846	4.0
7.2192	530.440584203	4.0
7.2294	530.494557423	4.0
7.2397	530.548761935	7.0
7.2499	530.602146834	3.0
7.2602	530.655760503	1.0
7.2704	530.708563494	6.0
7.2806	530.761079317	3.0
7.2909	530.813820186	2.0
7.3011	530.865763574	4.0
7.3114	530.917929556	3.0
7.3216	530.969306748	2.0
7.3318	531.020404527	2.0
7.3421	531.071721276	5.0
7.3523	531.122262077	7.0
7.3626	531.173019462	5.0
7.3728	531.223009356	3.0
7.383	531.272727381	7.0
7.3933	531.322658464	4.0
7.4035	531.371834551	5.0
7.4138	531.421221373	5.0
7.424	531.469861429	3.0
7.4342	531.518236958	0.0
7.4445	531.56681979	3.0
7.4547	531.614668014	3.0
7.465	531.662721282	2.0
7.4752	531.710047948	3.0
7.4854	531.75711723	3.0
7.4957	531.804388218	6.0
7.5059	531.850944434	4.0
7.5162	531.897700157	2.0
7.5264	531.943748898	2.0
7.5366	531.989547204	6.0
7.5469	532.035541771	5.0
7.5571	532.080840865	4.0
7.5674	532.12633408	4.0
7.5776	532.171139403	6.0
7.5878	532.215701053	4.0
7.5981	532.260453664	5.0
7.6083	532.304529582	6.0
7.6186	532.348794379	2.0
7.6288	532.392389859	2.0
7.639	532.435748246	7.0
7.6493	532.479292437	8.0
7.6595	532.522178207	1.0
7.6698	532.565247756	4.0
7.68	532.607666061	4.0
7.6902	532.649853675	1.0
7.7005	532.692222076	4.0
7.7107	532.733949835	2.0
7.721	532.775856411	3.0
7.7312	532.817129327	7.0
7.7414	532.858177782	4.0
7.7517	532.899402143	2.0
7.7619	532.94000316	2.0
7.7722	532.980778164	1.0
7.7824	533.02093662	6.0
7.7926	533.060876676	6.0
7.8029	533.100987887	4.0
7.8131	533.140492586	5.0
7.8234	533.180166575	5.0
7.8336	533.219240664	4.0
7.8438	533.258102249	2.0
