TL-DOS Lehrstuhlversuch
detector=R1407903
job_number=2015-11-03-015
irradiation_dose [mSv]=0.09

[BEGIN DATA]
time [sec] 	 temperature [K] 	 photoncount 
0.0	77.4309290221	0.0
0.0102	79.4937926259	0.0
0.0205	81.567570997	4.0
0.0307	83.6120377275	1.0
0.041	85.667321886	0.0
0.0512	87.6935558087	2.0
0.0614	89.7107784684	0.0
0.0717	91.7386744057	1.0
0.0819	93.7379072236	1.0
0.0922	95.7477181335	2.0
0.1024	97.7291215454	0.0
0.1126	99.7017130687	0.0
0.1229	101.684741723	0.0
0.1331	103.639741431	1.0
0.1434	105.605085189	5.0
0.1536	107.542649967	2.0
0.1638	109.47159782	0.0
0.1741	111.410751882	0.0
0.1843	113.322497139	1.0
0.1946	115.244357584	1.0
0.2048	117.13905366	3.0
0.215	119.02532346	0.0
0.2253	120.921573656	2.0
0.2355	122.791021469	0.0
0.2458	124.670360671	0.0
0.256	126.523136516	0.0
0.2662	128.367672517	1.0
0.2765	130.221968098	0.0
0.2867	132.050054299	0.0
0.297	133.887813042	0.0
0.3072	135.699596143	0.0
0.3174	137.503321708	0.0
0.3277	139.316590921	0.0
0.3379	141.104230638	0.0
0.3482	142.901328891	0.0
0.3584	144.673026215	0.0
0.3686	146.436844276	0.0
0.3789	148.209994831	1.0
0.3891	149.958082944	0.0
0.3994	151.715420323	0.0
0.4096	153.447918769	0.0
0.4198	155.172712281	0.0
0.4301	156.906631805	0.0
0.4403	158.616043395	0.0
0.4506	160.33449961	0.0
0.4608	162.028666455	1.0
0.471	163.715298838	0.0
0.4813	165.41085532	2.0
0.4915	167.082446106	0.0
0.5018	168.762881405	0.0
0.512	170.419564737	1.0
0.5222	172.068880307	0.0
0.5325	173.726922531	0.0
0.5427	175.3615293	0.0
0.553	177.004784898	0.0
0.5632	178.624814041	0.0
0.5734	180.237638435	0.0
0.5837	181.858996404	0.0
0.5939	183.45743743	0.0
0.6042	185.064335928	0.0
0.6144	186.648521859	0.0
0.6246	188.225662445	0.0
0.6349	189.811147801	0.0
0.6451	191.374223252	0.0
0.6554	192.945569053	0.0
0.6656	194.494704803	0.0
0.6758	196.036951087	2.0
0.6861	197.587357513	0.0
0.6963	199.115849853	0.0
0.7066	200.652429562	0.0
0.7168	202.167290619	1.0
0.727	203.675414639	0.0
0.7373	205.191518257	0.0
0.7475	206.68619264	0.0
0.7578	208.188775459	0.0
0.768	209.67012015	0.0
0.7782	211.144876863	0.0
0.7885	212.627436625	0.0
0.7987	214.089041274	1.0
0.809	215.558379384	0.0
0.8192	217.006949262	0.0
0.8294	218.449076921	0.0
0.8397	219.898834985	0.0
0.8499	221.32810157	1.0
0.8602	222.764930513	0.0
0.8704	224.181450721	0.0
0.8806	225.591671244	0.0
0.8909	227.009353351	0.0
0.9011	228.406997352	0.0
0.9114	229.812036394	0.0
0.9216	231.197216033	0.0
0.9318	232.576235368	0.0
0.9421	233.962551198	0.0
0.9523	235.329272267	0.0
0.9626	236.703224761	0.0
0.9728	238.057757242	0.0
0.983	239.406265716	0.0
0.9933	240.76190925	0.0
1.0035	242.098391557	0.0
1.0138	243.441945294	0.0
1.024	244.766508687	0.0
1.0342	246.085181354	0.0
1.0445	247.410831218	0.0
1.0547	248.717743799	0.0
1.065	250.031571352	0.0
1.0752	251.326828725	0.0
1.0854	252.616325703	0.0
1.0957	253.912645508	0.0
1.1059	255.190642592	0.0
1.1162	256.475401656	0.0
1.1264	257.742001405	0.0
1.1366	259.002968208	0.0
1.1469	260.270606882	0.0
1.1571	261.520328228	0.0
1.1674	262.776661943	0.0
1.1776	264.015238119	0.0
1.1878	265.248305979	0.0
1.1981	266.487898094	0.0
1.2083	267.709969302	0.0
1.2186	268.938506581	0.0
1.2288	270.149679206	1.0
1.239	271.355465388	2.0
1.2493	272.567631475	0.0
1.2595	273.762664306	1.0
1.2698	274.964020146	1.0
1.28	276.148395526	0.0
1.2902	277.327503638	0.0
1.3005	278.5128505	0.0
1.3107	279.681443179	0.0
1.321	280.85621897	0.0
1.3312	282.014389995	0.0
1.3414	283.16741029	0.0
1.3517	284.326531303	0.0
1.3619	285.46926882	0.0
1.3722	286.618052647	0.0
1.3824	287.750599089	0.0
1.3926	288.878108762	0.0
1.4029	290.011584173	0.0
1.4131	291.129038574	0.0
1.4234	292.252405511	0.0
1.4336	293.359894316	1.0
1.4438	294.462457789	0.0
1.4541	295.570855009	0.0
1.4643	296.663585685	0.0
1.4746	297.762098081	1.0
1.4848	298.845083649	0.0
1.495	299.923252859	0.0
1.5053	301.007126744	0.0
1.5155	302.075680707	0.0
1.5258	303.14988847	0.0
1.536	304.208912937	0.0
1.5462	305.263227608	1.0
1.5565	306.323120737	1.0
1.5667	307.368032899	0.0
1.577	308.41847377	0.0
1.5872	309.454067276	0.0
1.5974	310.48505519	0.0
1.6077	311.521498139	0.0
1.6179	312.543291576	0.0
1.6282	313.570491398	0.0
1.6384	314.583172354	0.0
1.6486	315.591349617	1.0
1.6589	316.604861223	0.0
1.6691	317.604047436	0.0
1.6794	318.608520419	2.0
1.6896	319.598795766	1.0
1.6998	320.584667065	0.0
1.7101	321.575754684	1.0
1.7203	322.55283386	0.0
1.7306	323.535082836	1.0
1.7408	324.503448299	0.0
1.751	325.467507154	1.0
1.7613	326.436666917	0.0
1.7715	327.392128176	1.0
1.7818	328.352644852	0.0
1.792	329.299585189	0.0
1.8022	330.242314201	0.0
1.8125	331.190031263	1.0
1.8227	332.124352901	2.0
1.833	333.063618105	1.0
1.8432	333.989607347	0.0
1.8534	334.91147844	0.0
1.8637	335.838227223	0.0
1.8739	336.751876955	0.0
1.8842	337.670360877	1.0
1.8944	338.575862568	1.0
1.9046	339.477337224	2.0
1.9149	340.383581651	1.0
1.9251	341.277016844	2.0
1.9354	342.175179271	0.0
1.9456	343.060646698	0.0
1.9558	343.94217619	1.0
1.9661	344.82836992	0.0
1.9763	345.702037823	2.0
1.9866	346.580328368	2.0
1.9968	347.446204791	0.0
2.007	348.308230406	5.0
2.0173	349.174817063	2.0
2.0275	350.029155026	4.0
2.0378	350.888013355	0.0
2.048	351.734732227	1.0
2.0582	352.577685488	1.0
2.0685	353.425098879	4.0
2.0787	354.260534578	1.0
2.089	355.100390631	2.0
2.0992	355.928375812	2.0
2.1094	356.752678697	1.0
2.1197	357.58134303	3.0
2.1299	358.39829468	2.0
2.1402	359.219568882	3.0
2.1504	360.029234856	2.0
2.1606	360.835300005	2.0
2.1709	361.645630105	3.0
2.1811	362.444506665	0.0
2.1914	363.247610141	3.0
2.2016	364.039362221	4.0
2.2118	364.827593144	2.0
2.2221	365.619994657	3.0
2.2323	366.401196039	2.0
2.2426	367.186530817	2.0
2.2528	367.960765349	5.0
2.263	368.73155663	6.0
2.2733	369.506426226	3.0
2.2835	370.270343495	7.0
2.2938	371.038302708	5.0
2.304	371.795407268	9.0
2.3142	372.549144759	6.0
2.3245	373.306870333	6.0
2.3347	374.0538859	8.0
2.345	374.804853983	7.0
2.3552	375.545207572	11.0
2.3654	376.28226859	5.0
2.3757	377.023229453	3.0
2.3859	377.75371727	7.0
2.3962	378.488070152	5.0
2.4064	379.212043387	10.0
2.4166	379.932796899	5.0
2.4269	380.657363972	6.0
2.4371	381.371689715	13.0
2.4474	382.089795009	17.0
2.4576	382.797750306	8.0
2.4678	383.502557115	7.0
2.4781	384.211093111	11.0
2.4883	384.909614367	5.0
2.4986	385.611831551	10.0
2.5088	386.304123307	17.0
2.519	386.993336237	10.0
2.5293	387.686195844	9.0
2.5395	388.369262287	10.0
2.5498	389.055942886	15.0
2.56	389.732917658	12.0
2.5702	390.406881723	10.0
2.5805	391.084411782	11.0
2.5907	391.752365351	9.0
2.601	392.423853113	18.0
2.6112	393.08584979	19.0
2.6214	393.744902371	9.0
2.6317	394.407442049	12.0
2.6419	395.060617118	13.0
2.6522	395.717248185	16.0
2.6624	396.364598157	19.0
2.6726	397.009069172	13.0
2.6829	397.656950132	11.0
2.6931	398.295673674	19.0
2.7034	398.937776751	13.0
2.7136	399.570804078	11.0
2.7238	400.201016145	14.0
2.7341	400.834562711	19.0
2.7443	401.459154468	20.0
2.7546	402.087050988	13.0
2.7648	402.706072558	20.0
2.775	403.322341156	7.0
2.7853	403.941870478	19.0
2.7955	404.552643117	14.0
2.8058	405.166647399	14.0
2.816	405.771973091	13.0
2.8262	406.374606721	14.0
2.8365	406.98042893	19.0
2.8467	407.577688198	14.0
2.857	408.17810761	11.0
2.8672	408.770040446	15.0
2.8774	409.359340781	17.0
2.8877	409.951759148	9.0
2.8979	410.53580403	13.0
2.9082	411.122939137	10.0
2.9184	411.701775434	11.0
2.9286	412.278037474	14.0
2.9389	412.85734856	10.0
2.9491	413.428471424	10.0
2.9594	414.002616142	10.0
2.9696	414.568645662	10.0
2.9798	415.13215788	16.0
2.9901	415.698651684	10.0
3.0003	416.257138431	9.0
3.0106	416.818580173	8.0
3.0208	417.372086265	13.0
3.031	417.923130752	17.0
3.0413	418.477090857	15.0
3.0515	419.02322106	7.0
3.0618	419.57224088	7.0
3.072	420.113500627	8.0
3.0822	420.652353231	11.0
3.0925	421.194056945	12.0
3.1027	421.728103995	11.0
3.113	422.264976729	11.0
3.1232	422.794261081	11.0
3.1334	423.321191548	11.0
3.1437	423.850910045	9.0
3.1539	424.373141282	8.0
3.1642	424.898135683	6.0
3.1744	425.415709596	10.0
3.1846	425.930981705	15.0
3.1949	426.448980158	11.0
3.2051	426.959657006	3.0
3.2154	427.473035884	15.0
3.2256	427.979158453	14.0
3.2358	428.483030145	8.0
3.2461	428.98956786	11.0
3.2563	429.488945962	17.0
3.2666	429.99096631	10.0
3.2768	430.485890896	10.0
3.287	430.978614406	14.0
3.2973	431.473944952	12.0
3.3075	431.962274292	14.0
3.3178	432.45318742	14.0
3.328	432.937161778	12.0
3.3382	433.418983759	7.0
3.3485	433.903355097	10.0
3.3587	434.380880129	10.0
3.369	434.860931783	16.0
3.3792	435.334198189	15.0
3.3894	435.805359838	14.0
3.3997	436.279014439	15.0
3.4099	436.745974211	12.0
3.4202	437.215404701	13.0
3.4304	437.678200068	18.0
3.4406	438.138937246	8.0
3.4509	438.602112219	15.0
3.4611	439.058740486	18.0
3.4714	439.517784807	6.0
3.4816	439.970340806	13.0
3.4918	440.420884155	18.0
3.5021	440.873811362	17.0
3.5123	441.320336709	12.0
3.5226	441.769224656	12.0
3.5328	442.211767834	20.0
3.543	442.652342892	12.0
3.5533	443.095249066	8.0
3.5635	443.531895021	8.0
3.5738	443.970851303	11.0
3.584	444.403603195	20.0
3.5942	444.834430511	22.0
3.6045	445.267537367	13.0
3.6147	445.694522512	29.0
3.625	446.123766868	13.0
3.6352	446.546944106	20.0
3.6454	446.96823935	17.0
3.6557	447.391763699	14.0
3.6659	447.809301779	12.0
3.6762	448.229049085	21.0
3.6864	448.642863509	19.0
3.6966	449.054837578	16.0
3.7069	449.468991433	19.0
3.7171	449.877291465	17.0
3.7274	450.287751845	9.0
3.7376	450.692410607	11.0
3.7478	451.095269732	17.0
3.7581	451.500260416	21.0
3.7683	451.899526793	12.0
3.7786	452.300905719	9.0
3.7888	452.696611389	15.0
3.799	453.090557239	17.0
3.8093	453.486587487	22.0
3.8195	453.877020079	16.0
3.8298	454.269518479	19.0
3.84	454.656469145	14.0
3.8502	455.041698926	12.0
3.8605	455.428966988	14.0
3.8707	455.810761242	6.0
3.881	456.194575599	10.0
3.8912	456.572964965	11.0
3.9014	456.949671521	13.0
3.9117	457.32837126	8.0
3.9219	457.701718301	13.0
3.9322	458.077040749	18.0
3.9424	458.447058234	8.0
3.9526	458.815430142	14.0
3.9629	459.185751133	14.0
3.9731	459.550837855	14.0
3.9834	459.917856278	16.0
3.9936	460.279687111	12.0
4.0038	460.639908775	13.0
4.0141	461.002036399	17.0
4.0243	461.359045561	12.0
4.0346	461.717943686	11.0
4.0448	462.071768996	16.0
4.055	462.424020741	9.0
4.0653	462.778136276	11.0
4.0755	463.127246596	13.0
4.0858	463.478204084	17.0
4.096	463.824200995	17.0
4.1062	464.168659155	13.0
4.1165	464.514939868	10.0
4.1267	464.856326108	9.0
4.137	465.199518647	9.0
4.1472	465.537860361	14.0
4.1574	465.87469737	6.0
4.1677	466.213316608	14.0
4.1779	466.547149663	14.0
4.1882	466.882749053	18.0
4.1984	467.213604942	14.0
4.2086	467.542989418	16.0
4.2189	467.874116691	10.0
4.2291	468.200563675	16.0
4.2394	468.528737915	12.0
4.2496	468.852273604	14.0
4.2598	469.174370434	14.0
4.2701	469.498171503	12.0
4.2803	469.817395833	12.0
4.2906	470.138309204	9.0
4.3008	470.454686652	11.0
4.311	470.769657076	11.0
4.3213	471.086294033	19.0
4.3315	471.398455512	11.0
4.3418	471.71226866	10.0
4.352	472.021646244	16.0
4.3622	472.329647935	15.0
4.3725	472.639279285	14.0
4.3827	472.944534178	13.0
4.393	473.251404197	15.0
4.4032	473.553936789	10.0
4.4134	473.855123929	20.0
4.4237	474.157904673	15.0
4.4339	474.456405789	13.0
4.4442	474.756486296	10.0
4.4544	475.052325342	11.0
4.4646	475.346848703	15.0
4.4749	475.64293041	10.0
4.4851	475.934827176	10.0
4.4954	476.22826839	8.0
4.5056	476.517561984	14.0
4.5158	476.805569004	13.0
4.5261	477.095099891	14.0
4.5363	477.380538428	14.0
4.5466	477.667487243	6.0
4.5568	477.950380204	15.0
4.567	478.232015057	11.0
4.5773	478.51514006	18.0
4.5875	478.794263258	21.0
4.5978	479.074863318	14.0
4.608	479.351497261	13.0
4.6182	479.62690093	12.0
4.6285	479.903761781	12.0
4.6387	480.176709367	16.0
4.649	480.451101138	16.0
4.6592	480.721614543	8.0
4.6694	480.990924895	12.0
4.6797	481.261660188	6.0
4.6899	481.528568797	15.0
4.7002	481.796889639	16.0
4.7104	482.061417923	12.0
4.7206	482.324769772	12.0
4.7309	482.589515035	18.0
4.7411	482.85051828	16.0
4.7514	483.112902512	17.0
4.7616	483.371578097	12.0
4.7718	483.629103275	7.0
4.7821	483.887991038	19.0
4.7923	484.143219575	17.0
4.8026	484.399798545	9.0
4.8128	484.652750922	10.0
4.823	484.904578344	14.0
4.8333	485.157738205	13.0
4.8435	485.407319799	15.0
4.8538	485.658221949	3.0
4.864	485.905577744	11.0
4.8742	486.151833474	10.0
4.8845	486.399392162	6.0
4.8947	486.643451753	10.0
4.905	486.888802682	13.0
4.9152	487.13068572	14.0
4.9254	487.371493032	14.0
4.9357	487.613574473	8.0
4.9459	487.852234236	10.0
4.9562	488.092156765	18.0
4.9664	488.32868813	9.0
4.9766	488.56416757	12.0
4.9869	488.800892949	9.0
4.9971	489.034272355	8.0
5.0074	489.268886588	8.0
5.0176	489.500184686	11.0
5.0278	489.730454134	13.0
5.0381	489.961941954	9.0
5.0483	490.19015783	3.0
5.0586	490.419581214	7.0
5.0688	490.645761832	10.0
5.079	490.870936558	12.0
5.0893	491.097302701	5.0
5.0995	491.320469291	7.0
5.1098	491.544816673	12.0
5.12	491.765993035	13.0
5.1302	491.986185761	13.0
5.1405	492.207543544	11.0
5.1507	492.425772563	12.0
5.161	492.64515625	6.0
5.1712	492.861439076	5.0
5.1814	493.076760029	14.0
5.1917	493.293220261	9.0
5.2019	493.506620954	11.0
5.2122	493.721150767	12.0
5.2224	493.932648327	10.0
5.2326	494.143205294	6.0
5.2429	494.354876334	6.0
5.2531	494.563555529	10.0
5.2634	494.77333886	21.0
5.2736	494.980157028	6.0
5.2838	495.186055413	9.0
5.2941	495.393043223	7.0
5.3043	495.597105381	3.0
5.3146	495.802247248	10.0
5.3248	496.004489555	15.0
5.335	496.20583243	8.0
5.3453	496.408240625	11.0
5.3555	496.6077879	9.0
5.3658	496.808390994	10.0
5.376	497.006158681	8.0
5.3862	497.203046837	8.0
5.3965	497.400976743	16.0
5.4067	497.596109025	11.0
5.417	497.792273767	7.0
5.4272	497.985665836	7.0
5.4374	498.178197833	14.0
5.4477	498.371748531	15.0
5.4579	498.562563504	4.0
5.4682	498.754388093	20.0
5.4784	498.943501354	8.0
5.4886	499.131773572	12.0
5.4989	499.321041953	8.0
5.5091	499.507635137	12.0
5.5194	499.695215599	11.0
5.5296	499.880144721	9.0
5.5398	500.064251408	12.0
5.5501	500.249332218	10.0
5.5603	500.43179702	8.0
5.5706	500.615227256	11.0
5.5808	500.796064813	9.0
5.591	500.976098133	20.0
5.6013	501.157084022	9.0
5.6115	501.335511782	13.0
5.6218	501.514883617	8.0
5.632	501.691720136	11.0
5.6422	501.86777021	14.0
5.6525	502.044751779	11.0
5.6627	502.219231817	8.0
5.673	502.394635042	11.0
5.6832	502.567559046	7.0
5.6934	502.739714005	9.0
5.7037	502.912779849	8.0
5.7139	503.083399509	9.0
5.7242	503.254921931	11.0
5.7344	503.424019984	12.0
5.7446	503.592366007	8.0
5.7549	503.761602762	7.0
5.7651	503.928447455	8.0
5.7754	504.096174936	9.0
5.7856	504.261531687	12.0
5.7958	504.426153047	9.0
5.8061	504.591645432	8.0
5.8163	504.754798679	9.0
5.8266	504.918815182	13.0
5.8368	505.080513408	13.0
5.847	505.241492514	9.0
5.8573	505.403323373	11.0
5.8675	505.562866848	10.0
5.8778	505.723254479	9.0
5.888	505.881375125	8.0
5.8982	506.038792561	7.0
5.9085	506.197042906	8.0
5.9187	506.353056474	8.0
5.929	506.509895522	12.0
5.9392	506.664517742	8.0
5.9494	506.818452311	10.0
5.9597	506.97320136	11.0
5.9699	507.125763122	7.0
5.9802	507.279132099	6.0
5.9904	507.430333296	9.0
6.0006	507.580862056	6.0
6.0109	507.732187276	4.0
6.0211	507.881373602	5.0
6.0314	508.031349284	12.0
6.0416	508.179205148	5.0
6.0518	508.326403454	5.0
6.0621	508.474380596	12.0
6.0723	508.620266169	7.0
6.0826	508.766923633	3.0
6.0928	508.91150818	4.0
6.103	509.055449716	8.0
6.1133	509.200152858	6.0
6.1235	509.342810706	6.0
6.1338	509.486223368	9.0
6.144	509.627608975	8.0
6.1542	509.768365799	7.0
6.1645	509.909867378	9.0
6.1747	510.049368915	6.0
6.185	510.189608566	3.0
6.1952	510.327866011	1.0
6.2054	510.465508584	4.0
6.2157	510.603879435	7.0
6.2259	510.740294494	1.0
6.2362	510.877431337	6.0
6.2464	511.01262983	6.0
6.2566	511.147227055	2.0
6.2669	511.282536445	2.0
6.2771	511.415933316	4.0
6.2874	511.550036	9.0
6.2976	511.682243221	3.0
6.3078	511.813862477	6.0
6.3181	511.946178141	7.0
6.3283	512.0766236	4.0
6.3386	512.207759256	4.0
6.3488	512.337041387	4.0
6.359	512.465748562	5.0
6.3693	512.595136736	6.0
6.3795	512.722696084	3.0
6.3898	512.850930358	7.0
6.4	512.977352116	5.0
6.4102	513.103211639	5.0
6.4205	513.229737094	6.0
6.4307	513.354474187	4.0
6.441	513.479871272	5.0
6.4512	513.603495943	1.0
6.4614	513.726570819	2.0
6.4717	513.850296893	5.0
6.4819	513.972274172	5.0
6.4922	514.094896842	3.0
6.5024	514.215786312	3.0
6.5126	514.336138151	3.0
6.5229	514.457126781	4.0
6.5331	514.576405307	2.0
6.5434	514.696314945	4.0
6.5536	514.814529731	1.0
6.5638	514.93221878	0.0
6.5741	515.050530531	0.0
6.5843	515.167170015	3.0
6.5946	515.284426648	1.0
6.6048	515.400025926	1.0
6.615	515.5151111	3.0
6.6253	515.630805199	1.0
6.6355	515.744864029	2.0
6.6458	515.859526354	2.0
6.656	515.972567993	1.0
6.6662	516.085106903	1.0
6.6765	516.198241265	0.0
6.6867	516.309776539	3.0
6.697	516.421901955	1.0
6.7072	516.532442543	2.0
6.7174	516.642491525	0.0
6.7277	516.753122784	1.0
6.7379	516.862190336	2.0
6.7482	516.971834972	0.0
6.7584	517.079929845	3.0
6.7686	517.187543989	0.0
6.7789	517.295727527	1.0
6.7891	517.402381954	0.0
6.7994	517.509600698	1.0
6.8096	517.615303968	0.0
6.8198	517.720537144	1.0
6.8301	517.826327116	0.0
6.8403	517.93062181	3.0
6.8506	518.035468334	0.0
6.8608	518.138832915	0.0
6.871	518.241737802	1.0
6.8813	518.345187167	1.0
6.8915	518.447174336	2.0
6.9018	518.549701127	1.0
6.912	518.650778762	1.0
6.9222	518.751406875	2.0
6.9325	518.852567418	0.0
6.9427	518.952298117	2.0
6.953	519.052556498	0.0
6.9632	519.151397786	0.0
6.9734	519.249799497	1.0
6.9837	519.348721859	2.0
6.9939	519.446246012	0.0
7.0042	519.544286173	1.0
7.0144	519.640940593	1.0
7.0246	519.737165162	0.0
7.0349	519.833898863	1.0
7.0451	519.92926529	0.0
7.0554	520.025136307	2.0
7.0656	520.119652244	0.0
7.0758	520.213747841	2.0
7.0861	520.308341305	2.0
7.0963	520.401597745	0.0
7.1066	520.495347613	1.0
7.1168	520.587772381	0.0
7.127	520.679786108	0.0
7.1373	520.772286687	1.0
7.1475	520.863479825	0.0
7.1578	520.955155473	3.0
7.168	521.045535339	1.0
7.1782	521.135513259	1.0
7.1885	521.225967259	1.0
7.1987	521.315142745	1.0
7.209	521.404790065	1.0
7.2192	521.493170273	0.0
7.2294	521.581157427	2.0
7.2397	521.669610129	0.0
7.2499	521.756812603	0.0
7.2602	521.844476473	0.0
7.2704	521.930901265	0.0
7.2806	522.0169417	0.0
7.2909	522.103437382	2.0
7.3011	522.188710498	0.0
7.3114	522.2744348	0.0
7.3216	522.35894744	1.0
7.3318	522.443084227	2.0
7.3421	522.527666188	3.0
7.3523	522.611052633	1.0
7.3626	522.694880281	1.0
7.3728	522.777523075	1.0
7.383	522.859798333	1.0
7.3933	522.942508914	0.0
7.4035	523.02405043	2.0
7.4138	523.106023389	1.0
7.424	523.186837707	1.0
7.4342	523.267292621	0.0
7.4445	523.348173228	0.0
7.4547	523.427910634	2.0
7.465	523.508069938	0.0
7.4752	523.587096236	0.0
7.4854	523.665771081	3.0
7.4957	523.744862201	0.0
7.5059	523.822835414	1.0
7.5162	523.901221189	0.0
7.5264	523.978499028	0.0
7.5366	524.055433189	0.0
7.5469	524.132774414	0.0
7.5571	524.209022467	1.0
7.5674	524.285673953	0.0
7.5776	524.361242016	0.0
7.5878	524.436474006	1.0
7.5981	524.512104053	0.0
7.6083	524.586665114	1.0
7.6186	524.661620684	2.0
7.6288	524.7355168	1.0
7.639	524.809084279	0.0
7.6493	524.883041008	0.0
7.6595	524.955952403	1.0
7.6698	525.029249577	0.0
7.68	525.101510739	0.0
7.6902	525.173450533	1.0
7.7005	525.245770967	0.0
7.7107	525.317069194	0.0
7.721	525.388744665	1.0
7.7312	525.459407046	0.0
7.7414	525.529755169	1.0
7.7517	525.600475511	1.0
7.7619	525.670196261	0.0
7.7722	525.74028591	0.0
7.7824	525.809384882	0.0
7.7926	525.878176551	0.0
7.8029	525.947332201	0.0
7.8131	526.015510377	0.0
7.8234	526.084049289	0.0
7.8336	526.151619444	1.0
7.8438	526.218889094	1.0
7.8541	526.286514673	1.0
7.8643	526.353184404	1.0
7.8746	526.420206889	1.0
7.8848	526.486282051	0.0
7.895	526.552063358	0.0
7.9053	526.618192718	0.0
7.9155	526.683387378	0.0
7.9258	526.748926989	0.0
7.936	526.813540235	1.0
7.9462	526.877866127	0.0
7.9565	526.942532372	1.0
7.9667	527.006284598	0.0
7.977	527.070374142	1.0
7.9872	527.133557817	0.0
7.9974	527.196460496	2.0
8.0077	527.259695998	0.0
8.0179	527.322037703	0.0
8.0282	527.384709263	0.0
8.0384	527.446494997	0.0
8.0486	527.508005952	1.0
8.0589	527.569842365	0.0
8.0691	527.630804758	0.0
8.0794	527.692089707	1.0
8.0896	527.752508429	1.0
