TL-DOS Lehrstuhlversuch
detector=R1407501
job_number=2015-10-23-001
irradiation_dose [mSv]=4.0

[BEGIN DATA]
time [sec] 	 temperature [K] 	 photoncount 
0.0	153.372099962	0.0
0.0102	154.922330218	0.0
0.0205	156.481654207	0.0
0.0307	158.019817329	0.0
0.041	159.567003397	2.0
0.0512	161.093193316	3.0
0.0614	162.613460605	0.0
0.0717	164.142645863	1.0
0.0819	165.651079253	0.0
0.0922	167.168361192	0.0
0.1024	168.665052799	0.0
0.1126	170.155936248	0.0
0.1229	171.655565298	0.0
0.1331	173.134843574	2.0
0.1434	174.622799375	0.0
0.1536	176.090562813	1.0
0.1638	177.552630356	2.0
0.1741	179.023274463	1.0
0.1843	180.473961138	1.0
0.1946	181.933157617	0.0
0.2048	183.372552014	0.0
0.215	184.806360605	0.0
0.2253	186.248579993	2.0
0.2355	187.671227687	2.0
0.2458	189.102220707	1.0
0.256	190.513794381	0.0
0.2662	191.919890212	1.0
0.2765	193.334234276	0.0
0.2867	194.729384928	0.0
0.297	196.132719608	0.0
0.3072	197.51701028	0.0
0.3174	198.895928986	0.0
0.3277	200.282936501	0.0
0.3379	201.651121578	0.0
0.3482	203.0273325	1.0
0.3584	204.384867498	0.0
0.3686	205.737134359	0.0
0.3789	207.097333689	1.0
0.3891	208.439074382	0.0
0.3994	209.788685796	0.0
0.4096	211.119982256	0.0
0.4198	212.446112402	0.0
0.4301	213.780021698	0.0
0.4403	215.095829125	0.0
0.4506	216.419355149	0.0
0.4608	217.724920211	0.0
0.471	219.025418814	0.0
0.4813	220.333546211	0.0
0.4915	221.623921614	0.0
0.5018	222.921866427	0.0
0.512	224.20219743	0.0
0.5222	225.477559899	0.0
0.5325	226.760403711	0.0
0.5427	228.025838641	0.0
0.553	229.29869668	0.0
0.5632	230.554281349	0.0
0.5734	231.804993517	0.0
0.5837	233.063042427	0.0
0.5939	234.304018937	0.0
0.6042	235.55227508	0.0
0.6144	236.783591714	0.0
0.6246	238.010130023	0.0
0.6349	239.24386327	0.0
0.6451	240.460854093	0.0
0.6554	241.684983847	0.0
0.6656	242.892501502	0.0
0.6758	244.095333186	0.0
0.6861	245.305220744	0.0
0.6963	246.498689477	0.0
0.7066	247.69915916	0.0
0.7168	248.883337822	1.0
0.727	250.062921086	0.0
0.7373	251.249423847	1.0
0.7475	252.419825126	0.0
0.7578	253.597092041	0.0
0.768	254.75838281	0.0
0.7782	255.915166999	0.0
0.7885	257.078736946	0.0
0.7987	258.226516622	0.0
0.809	259.381029233	0.0
0.8192	260.519874487	1.0
0.8294	261.654300265	0.0
0.8397	262.795380645	0.0
0.8499	263.920975949	1.0
0.8602	265.053174054	0.0
0.8704	266.170007621	0.0
0.8806	267.282507133	0.0
0.8909	268.401532625	0.0
0.9011	269.505372339	0.0
0.9114	270.615687234	0.0
0.9216	271.710934558	0.0
0.9318	272.801931596	2.0
0.9421	273.89932848	1.0
0.9523	274.981833097	0.0
0.9626	276.070687743	2.0
0.9728	277.144766044	0.0
0.983	278.214676209	2.0
0.9933	279.290862524	0.0
1.0035	280.35244441	0.0
1.0138	281.420253592	2.0
1.024	282.473572028	1.0
1.0342	283.522802889	0.0
1.0445	284.578188594	0.0
1.0547	285.619252146	0.0
1.065	286.666422632	1.0
1.0752	287.69938245	0.0
1.0854	288.728333698	0.0
1.0957	289.763320829	0.0
1.1059	290.784262627	0.0
1.1162	291.811193323	0.0
1.1264	292.824188016	0.0
1.1366	293.833251618	2.0
1.1469	294.84823444	1.0
1.1571	295.849443398	0.0
1.1674	296.856525501	2.0
1.1776	297.849940956	1.0
1.1878	298.839501301	0.0
1.1981	299.834866459	1.0
1.2083	300.816723975	0.0
1.2186	301.804341119	2.0
1.2288	302.778555767	3.0
1.239	303.748989815	2.0
1.2493	304.72511648	0.0
1.2595	305.687996581	0.0
1.2698	306.656524987	6.0
1.28	307.611909941	4.0
1.2902	308.563587367	3.0
1.3005	309.520847383	1.0
1.3107	310.465116865	3.0
1.321	311.414925481	7.0
1.3312	312.351844683	5.0
1.3414	313.285128016	1.0
1.3517	314.223886039	1.0
1.3619	315.149904609	2.0
1.3722	316.081355254	5.0
1.3824	317.000165611	2.0
1.3926	317.915410374	3.0
1.4029	318.836024011	2.0
1.4131	319.744144425	5.0
1.4234	320.657591922	5.0
1.4336	321.558643443	3.0
1.4438	322.456198287	3.0
1.4541	323.359018235	9.0
1.4643	324.249586429	5.0
1.4746	325.145378744	3.0
1.4848	326.029014674	4.0
1.495	326.909221511	5.0
1.5053	327.794591687	8.0
1.5155	328.667946913	3.0
1.5258	329.546425286	7.0
1.536	330.412982235	5.0
1.5462	331.276176368	9.0
1.5565	332.144434043	6.0
1.5667	333.000908993	14.0
1.577	333.862408071	8.0
1.5872	334.712216142	6.0
1.5974	335.558726394	11.0
1.6077	336.41020232	19.0
1.6179	337.250123258	11.0
1.6282	338.094971217	11.0
1.6384	338.928354134	19.0
1.6486	339.758502972	21.0
1.6589	340.593521507	23.0
1.6691	341.417208391	10.0
1.6794	342.245727065	16.0
1.6896	343.063002295	11.0
1.6998	343.877105954	19.0
1.7101	344.695985188	23.0
1.7203	345.50375179	18.0
1.7306	346.316256793	24.0
1.7408	347.117735666	26.0
1.751	347.916104268	28.0
1.7613	348.719156143	30.0
1.7715	349.511310172	45.0
1.7818	350.308111017	39.0
1.792	351.094098846	40.0
1.8022	351.87703652	34.0
1.8125	352.664566949	28.0
1.8227	353.441410164	35.0
1.833	354.222810384	57.0
1.8432	354.993606581	49.0
1.8534	355.761411577	43.0
1.8637	356.533720558	49.0
1.8739	357.29554889	52.0
1.8842	358.061846147	52.0
1.8944	358.817744338	70.0
1.9046	359.570709141	65.0
1.9149	360.328090876	63.0
1.9251	361.075194533	65.0
1.9354	361.826680739	83.0
1.9456	362.567968873	67.0
1.9558	363.306380317	95.0
1.9661	364.049123321	103.0
1.9763	364.781786902	80.0
1.9866	365.518748327	99.0
1.9968	366.245708788	88.0
2.007	366.969848159	140.0
2.0173	367.698235371	117.0
2.0275	368.416737976	124.0
2.0378	369.139455355	128.0
2.048	369.852365069	129.0
2.0582	370.562508221	140.0
2.0685	371.27681711	147.0
2.0787	371.981432442	150.0
2.089	372.690181086	141.0
2.0992	373.389311628	167.0
2.1094	374.08572908	200.0
2.1197	374.786231753	192.0
2.1299	375.477228227	207.0
2.1402	376.172278123	237.0
2.1504	376.857895818	218.0
2.1606	377.540852861	227.0
2.1709	378.227816166	244.0
2.1811	378.905457009	257.0
2.1914	379.587072929	271.0
2.2016	380.259438953	290.0
2.2118	380.929195751	291.0
2.2221	381.602881378	307.0
2.2323	382.267424728	325.0
2.2426	382.935866324	371.0
2.2528	383.595236808	375.0
2.263	384.252048496	406.0
2.2733	384.912713076	377.0
2.2835	385.564412083	381.0
2.2938	386.219933989	407.0
2.304	386.866560111	450.0
2.3142	387.510676894	462.0
2.3245	388.1585721	524.0
2.3347	388.797675018	499.0
2.345	389.440526949	480.0
2.3552	390.074655032	536.0
2.3654	390.706322277	554.0
2.3757	391.341694916	613.0
2.3859	391.968445206	603.0
2.3962	392.598872046	615.0
2.4064	393.220743654	615.0
2.4166	393.840201988	617.0
2.4269	394.463294096	673.0
2.4371	395.077930509	654.0
2.4474	395.696172412	716.0
2.4576	396.306024439	720.0
2.4678	396.913509836	707.0
2.4781	397.524558773	725.0
2.4883	398.127315448	734.0
2.4986	398.733607925	785.0
2.5088	399.331672686	706.0
2.519	399.927416559	770.0
2.5293	400.526655097	781.0
2.5395	401.117761646	777.0
2.5498	401.712335656	801.0
2.56	402.298840977	824.0
2.5702	402.883070268	818.0
2.5805	403.470726678	759.0
2.5907	404.050408275	838.0
2.601	404.633490314	846.0
2.6112	405.208659616	851.0
2.6214	405.78159688	760.0
2.6317	406.357895023	767.0
2.6419	406.92637249	790.0
2.6522	407.498184676	790.0
2.6624	408.062237063	757.0
2.6726	408.624100552	775.0
2.6829	409.189259962	731.0
2.6931	409.746749854	760.0
2.7034	410.307510011	732.0
2.7136	410.860660351	749.0
2.7238	411.4116641	705.0
2.7341	411.965900067	642.0
2.7443	412.512614752	629.0
2.7546	413.062536495	643.0
2.7648	413.604995504	580.0
2.775	414.145349411	589.0
2.7853	414.688873063	582.0
2.7955	415.225020806	572.0
2.8058	415.764313621	529.0
2.816	416.296287941	484.0
2.8262	416.826197847	447.0
2.8365	417.359216234	455.0
2.8467	417.885001273	432.0
2.857	418.413870595	451.0
2.8672	418.935562876	466.0
2.8774	419.455230644	471.0
2.8877	419.977946811	413.0
2.8979	420.493569438	416.0
2.9082	421.012216734	411.0
2.9184	421.523825707	377.0
2.9286	422.033449298	377.0
2.9389	422.546062367	374.0
2.9491	423.051719001	382.0
2.9594	423.560341844	409.0
2.9696	424.0620624	376.0
2.9798	424.561835948	362.0
2.9901	425.064541194	354.0
3.0003	425.560424458	385.0
3.0106	426.0592166	382.0
3.0208	426.551239864	393.0
3.031	427.041353752	447.0
3.0413	427.534342673	390.0
3.0515	428.020641468	432.0
3.0618	428.509792918	414.0
3.072	428.99230632	420.0
3.0822	429.472947249	447.0
3.0925	429.956407643	446.0
3.1027	430.433307219	452.0
3.113	430.913004314	488.0
3.1232	431.38619166	503.0
3.1334	431.857542725	490.0
3.1437	432.331658761	502.0
3.1539	432.799340786	527.0
3.1642	433.269766259	555.0
3.1744	433.733807804	546.0
3.1846	434.196048561	590.0
3.1949	434.661000846	576.0
3.2051	435.119643478	591.0
3.2154	435.580976532	551.0
3.2256	436.036049048	570.0
3.2358	436.489355581	579.0
3.2461	436.945321233	639.0
3.2563	437.395099186	607.0
3.2666	437.84751556	616.0
3.2768	438.293792401	667.0
3.287	438.73833739	666.0
3.2973	439.185490105	644.0
3.3075	439.626574716	659.0
3.3178	440.070246752	662.0
3.328	440.50789792	686.0
3.3382	440.943850711	672.0
3.3485	441.382360824	709.0
3.3587	441.814920119	686.0
3.369	442.250016829	671.0
3.3792	442.679209042	697.0
3.3894	443.106735705	723.0
3.3997	443.536770262	746.0
3.4099	443.960969018	689.0
3.4202	444.387656146	725.0
3.4304	444.8085529	738.0
3.4406	445.227816295	773.0
3.4509	445.649539112	745.0
3.4611	446.065538923	721.0
3.4714	446.48397901	711.0
3.4816	446.89674064	735.0
3.4918	447.307900481	721.0
3.5021	447.721472208	737.0
3.5123	448.129431543	713.0
3.5226	448.539783989	692.0
3.5328	448.944567731	767.0
3.543	449.347780644	713.0
3.5533	449.753358825	703.0
3.5635	450.153433092	692.0
3.5738	450.555854215	712.0
3.584	450.952814267	706.0
3.5942	451.34823385	692.0
3.6045	451.745972986	707.0
3.6147	452.138314587	692.0
3.625	452.532957684	686.0
3.6352	452.922245263	698.0
3.6454	453.310022147	628.0
3.6557	453.70007375	678.0
3.6659	454.084832143	624.0
3.6762	454.47184755	660.0
3.6864	454.853610948	607.0
3.6966	455.233892852	660.0
3.7069	455.616405509	642.0
3.7171	455.993727263	685.0
3.7274	456.373262406	675.0
3.7376	456.747647053	633.0
3.7478	457.12057884	641.0
3.7581	457.495698263	568.0
3.7683	457.865727114	627.0
3.7786	458.237926574	606.0
3.7888	458.605075087	585.0
3.799	458.970798819	613.0
3.8093	459.338667907	603.0
3.8195	459.701544812	638.0
3.8298	460.066550373	523.0
3.84	460.426602612	583.0
3.8502	460.785257609	573.0
3.8605	461.146016495	537.0
3.8707	461.501879688	583.0
3.881	461.859830394	618.0
3.8912	462.212923516	579.0
3.9014	462.564646402	587.0
3.9117	462.918432513	603.0
3.9219	463.267417557	529.0
3.9322	463.618449764	580.0
3.9424	463.964718276	603.0
3.9526	464.309643036	587.0
3.9629	464.656591143	549.0
3.9731	464.998830977	565.0
3.9834	465.343078408	589.0
3.9936	465.682654215	572.0
4.0038	466.020912244	575.0
4.0141	466.361154512	597.0
4.0243	466.696779508	606.0
4.0346	467.034373299	548.0
4.0448	467.36738576	542.0
4.055	467.699105912	589.0
4.0653	468.032771952	631.0
4.0755	468.361909964	582.0
4.0858	468.692978716	590.0
4.096	469.019554688	577.0
4.1062	469.344863327	592.0
4.1165	469.672080245	591.0
4.1267	469.994856652	589.0
4.137	470.319526483	550.0
4.1472	470.63979037	567.0
4.1574	470.95881142	582.0
4.1677	471.279703864	551.0
4.1779	471.596241625	579.0
4.1882	471.914636213	587.0
4.1984	472.228710015	574.0
4.2086	472.541565003	602.0
4.2189	472.856255214	597.0
4.2291	473.166674909	584.0
4.2394	473.478915543	561.0
4.2496	473.786918903	599.0
4.2598	474.093727006	540.0
4.2701	474.402334861	585.0
4.2803	474.706754741	559.0
4.2906	475.012960364	493.0
4.3008	475.315010612	552.0
4.311	475.615888705	535.0
4.3213	475.918531764	548.0
4.3315	476.217067794	553.0
4.3418	476.517355052	535.0
4.352	476.813567251	560.0
4.3622	477.108629949	603.0
4.3725	477.4054235	545.0
4.3827	477.698189404	580.0
4.393	477.992672687	508.0
4.4032	478.283159674	558.0
4.4134	478.572519378	485.0
4.4237	478.863576482	528.0
4.4339	479.150683784	552.0
4.4442	479.439475272	516.0
4.4544	479.724347704	499.0
4.4646	480.008114643	517.0
4.4749	480.293546173	524.0
4.4851	480.575104243	516.0
4.4954	480.858313948	501.0
4.5056	481.137680345	525.0
4.5158	481.415962614	504.0
4.5261	481.695877302	526.0
4.5363	481.971993397	533.0
4.5466	482.249729204	528.0
4.5568	482.523695986	496.0
4.567	482.796599595	504.0
4.5773	483.071104071	488.0
4.5875	483.341883373	526.0
4.5978	483.614251081	499.0
4.608	483.882922613	472.0
4.6182	484.15055152	493.0
4.6285	484.419750353	518.0
4.6387	484.685296013	484.0
4.649	484.952399377	507.0
4.6592	485.215878005	458.0
4.6694	485.478334161	466.0
4.6797	485.742329899	500.0
4.6899	486.002743072	512.0
4.7002	486.264683843	471.0
4.7104	486.523069936	474.0
4.7206	486.78045332	489.0
4.7309	487.039346528	481.0
4.7411	487.294726416	482.0
4.7514	487.551604376	499.0
4.7616	487.804996363	499.0
4.7718	488.057405022	498.0
4.7821	488.311294323	463.0
4.7923	488.561738209	468.0
4.8026	488.813651212	473.0
4.8128	489.06214562	482.0
4.823	489.309675705	474.0
4.8333	489.558657815	486.0
4.8435	489.804261103	425.0
4.8538	490.051305113	451.0
4.864	490.294996603	457.0
4.8742	490.537742407	428.0
4.8845	490.781912172	479.0
4.8947	491.022768421	472.0
4.905	491.265037546	416.0
4.9152	491.504018948	432.0
4.9254	491.742072944	460.0
4.9357	491.981523377	461.0
4.9459	492.217724339	459.0
4.9562	492.455310868	446.0
4.9664	492.68967322	448.0
4.9766	492.92312609	450.0
4.9869	493.157948407	415.0
4.9971	493.389584059	433.0
5.0074	493.622578498	466.0
5.0176	493.852411076	447.0
5.0278	494.081351752	480.0
5.0381	494.311635406	475.0
5.0483	494.538793986	501.0
5.0586	494.767285091	444.0
5.0688	494.992675448	453.0
5.079	495.217191142	429.0
5.0893	495.443023856	448.0
5.0995	495.665791898	424.0
5.1098	495.88986671	465.0
5.12	496.110900705	434.0
5.1302	496.331076942	447.0
5.1405	496.552544745	461.0
5.1507	496.77100711	472.0
5.161	496.990750987	458.0
5.1712	497.207512821	493.0
5.1814	497.423433475	475.0
5.1917	497.640620731	466.0
5.2019	497.854860639	431.0
5.2122	498.07035729	451.0
5.2224	498.282929535	424.0
5.2326	498.494676858	446.0
5.2429	498.707666303	406.0
5.2531	498.917765366	477.0
5.2634	499.129096881	440.0
5.2736	499.337560514	450.0
5.2838	499.545215169	484.0
5.2941	499.754087938	419.0
5.3043	499.960126191	434.0
5.3146	500.167373074	473.0
5.3248	500.371807506	473.0
5.335	500.575448597	452.0
5.3453	500.780284257	432.0
5.3555	500.982340187	402.0
5.3658	501.185581388	444.0
5.376	501.386064496	444.0
5.3862	501.585769596	404.0
5.3965	501.786646177	423.0
5.4067	501.984796755	446.0
5.417	502.184109694	408.0
5.4272	502.38071785	461.0
5.4374	502.576563035	452.0
5.4477	502.773557058	412.0
5.4579	502.967877767	442.0
5.4682	503.163338371	447.0
5.4784	503.356146469	423.0
5.4886	503.548206344	416.0
5.4989	503.741392852	425.0
5.5091	503.931957715	443.0
5.5194	504.123640442	406.0
5.5296	504.312721931	455.0
5.5398	504.501069658	427.0
5.5501	504.690522243	420.0
5.5603	504.877403854	427.0
5.5706	505.065381723	383.0
5.5808	505.25080863	381.0
5.591	505.435515959	385.0
5.6013	505.62130679	408.0
5.6115	505.804576339	374.0
5.6218	505.988920958	395.0
5.632	506.17076392	350.0
5.6422	506.351901211	346.0
5.6525	506.534101063	337.0
5.6627	506.713828365	315.0
5.673	506.894609957	343.0
5.6832	507.072938245	340.0
5.6934	507.250574501	351.0
5.7037	507.42925278	360.0
5.7139	507.6055063	328.0
5.7242	507.782793731	343.0
5.7344	507.957675277	321.0
5.7446	508.131878166	300.0
5.7549	508.307102938	291.0
5.7651	508.479949816	359.0
5.7754	508.653810623	310.0
5.7856	508.825312045	302.0
5.7958	508.996147927	276.0
5.8061	509.167985942	267.0
5.8163	509.337492023	284.0
5.8266	509.507992435	291.0
5.8368	509.676179064	277.0
5.847	509.843713018	253.0
5.8573	510.012229735	254.0
5.8675	510.178459589	262.0
5.8778	510.345664557	240.0
5.888	510.510600462	272.0
5.8982	510.674896307	269.0
5.9085	510.840155921	242.0
5.9187	511.003172872	234.0
5.929	511.167146089	238.0
5.9392	511.328894101	202.0
5.9494	511.490014424	219.0
5.9597	511.652079887	201.0
5.9699	511.811946034	207.0
5.9802	511.972749964	190.0
5.9904	512.131371699	191.0
6.0006	512.289377876	181.0
6.0109	512.448310925	183.0
6.0211	512.605087168	198.0
6.0314	512.762783068	174.0
6.0416	512.91833895	169.0
6.0518	513.073291171	194.0
6.0621	513.229152351	187.0
6.0723	513.38289841	143.0
6.0826	513.537546352	143.0
6.0928	513.690095638	145.0
6.103	513.842052932	177.0
6.1133	513.994901615	151.0
6.1235	514.145676059	137.0
6.1338	514.297334954	156.0
6.144	514.446935756	139.0
6.1542	514.595956008	156.0
6.1645	514.74585042	136.0
6.1747	514.893710684	123.0
6.185	515.042438304	118.0
6.1952	515.189147611	132.0
6.2054	515.335287588	103.0
6.2157	515.48228483	110.0
6.2259	515.62728724	105.0
6.2362	515.773140242	106.0
6.2464	515.91701394	118.0
6.2566	516.060329312	110.0
6.2669	516.20448538	117.0
6.2771	516.346685173	88.0
6.2874	516.489719117	98.0
6.2976	516.630812013	84.0
6.3078	516.771357376	79.0
6.3181	516.912727184	85.0
6.3283	517.052178529	96.0
6.3386	517.192447902	74.0
6.3488	517.330813744	81.0
6.359	517.468642635	73.0
6.3693	517.607280038	60.0
6.3795	517.744036056	52.0
6.3898	517.881594292	76.0
6.4	518.017285789	55.0
6.4102	518.152450713	53.0
6.4205	518.288408521	34.0
6.4307	518.422521309	61.0
6.441	518.55742081	61.0
6.4512	518.690489651	48.0
6.4614	518.823042097	45.0
6.4717	518.956372103	55.0
6.4819	519.087892749	53.0
6.4922	519.220184901	50.0
6.5024	519.350681778	37.0
6.5126	519.480672241	43.0
6.5229	519.611425234	39.0
6.5331	519.740403839	39.0
6.5434	519.870139039	34.0
6.5536	519.998113662	37.0
6.5638	520.12559166	30.0
6.5741	520.253817449	34.0
6.5843	520.380303146	32.0
6.5946	520.507530814	23.0
6.6048	520.633031935	35.0
6.615	520.758046027	20.0
6.6253	520.883793459	32.0
6.6355	521.007834431	20.0
6.6458	521.132603034	27.0
6.656	521.255678459	32.0
6.6662	521.37827627	23.0
6.6765	521.501593246	23.0
6.6867	521.623236745	25.0
6.697	521.74559381	20.0
6.7072	521.866290424	15.0
6.7174	521.986518656	22.0
6.7277	522.107452152	11.0
6.7379	522.226744516	20.0
6.7482	522.346736655	26.0
6.7584	522.465100436	20.0
6.7686	522.583004887	17.0
6.7789	522.701600972	22.0
6.7891	522.818587644	15.0
6.7994	522.936260566	12.0
6.8096	523.052336603	14.0
6.8198	523.167962188	20.0
6.8301	523.284266039	18.0
6.8403	523.398991584	14.0
6.8506	523.514390115	14.0
6.8608	523.628222625	13.0
6.871	523.74161339	14.0
6.8813	523.855669311	21.0
6.8915	523.968177432	9.0
6.9018	524.081345532	9.0
6.912	524.192977879	19.0
6.9222	524.304177019	11.0
6.9325	524.416028459	9.0
6.9427	524.526362014	9.0
6.953	524.637342792	14.0
6.9632	524.746817501	10.0
6.9734	524.855867376	7.0
6.9837	524.965556943	12.0
6.9939	525.073757963	10.0
7.0042	525.182593696	12.0
7.0144	525.28995247	10.0
7.0246	525.39689462	5.0
7.0349	525.504464099	8.0
7.0451	525.610573802	6.0
7.0554	525.71730595	9.0
7.0656	525.822589685	9.0
7.0758	525.927464849	7.0
7.0861	526.032955217	9.0
7.0963	526.137014023	9.0
7.1066	526.241683244	5.0
7.1168	526.344932048	8.0
7.127	526.447780177	9.0
7.1373	526.551231619	6.0
7.1475	526.653279169	6.0
7.1578	526.755925336	5.0
7.168	526.857178538	12.0
7.1782	526.958038811	7.0
7.1885	527.059490736	4.0
7.1987	527.159565903	5.0
7.209	527.260228117	6.0
7.2192	527.35952429	10.0
7.2294	527.458435128	8.0
7.2397	527.557926183	6.0
7.2499	527.65606709	5.0
7.2602	527.754783697	8.0
7.2704	527.852160666	4.0
7.2806	527.949159748	5.0
7.2909	528.046727832	6.0
7.3011	528.142971864	9.0
7.3114	528.239780469	4.0
7.3216	528.335275329	4.0
7.3318	528.430399605	6.0
7.3421	528.526081886	2.0
7.3523	528.620465706	6.0
7.3626	528.715403187	8.0
7.3728	528.809052315	7.0
7.383	528.902338023	3.0
7.3933	528.996170949	6.0
7.4035	529.088730512	5.0
7.4138	529.181833034	5.0
7.424	529.273672105	4.0
7.4342	529.365154779	6.0
7.4445	529.457174095	5.0
7.4547	529.54794466	2.0
7.465	529.639247689	8.0
7.4752	529.729311688	7.0
7.4854	529.819026178	4.0
7.4957	529.909266938	4.0
7.5059	529.998283082	2.0
7.5162	530.0878214	4.0
7.5264	530.176144635	7.0
7.5366	530.264125117	7.0
7.5469	530.352621697	5.0
7.5571	530.43991733	5.0
7.5674	530.527725045	4.0
7.5776	530.614341161	2.0
7.5878	530.70062115	3.0
7.5981	530.787407261	3.0
7.6083	530.873015638	6.0
7.6186	530.959126199	2.0
7.6288	531.044068192	3.0
7.639	531.128680555	4.0
7.6493	531.213789258	2.0
7.6595	531.29774299	2.0
7.6698	531.382189199	3.0
7.68	531.465489427	2.0
7.6902	531.548466396	3.0
7.7005	531.631930111	3.0
7.7107	531.714261179	6.0
7.721	531.797075206	6.0
7.7312	531.878765401	3.0
7.7414	531.960138584	5.0
7.7517	532.041989107	3.0
7.7619	532.122728874	6.0
7.7722	532.203942264	2.0
7.7824	532.284053546	3.0
7.7926	532.363853942	5.0
7.8029	532.444122451	4.0
