TL-DOS Lehrstuhlversuch
detector=R1407503
job_number=2015-11-05-005
irradiation_dose [mSv]=0.06

[BEGIN DATA]
time [sec] 	 temperature [K] 	 photoncount 
0.0	192.905392168	0.0
0.0102	194.061287986	0.0
0.0205	195.224933773	0.0
0.0307	196.373745335	0.0
0.041	197.530259367	2.0
0.0512	198.672030091	2.0
0.0614	199.810313662	3.0
0.0717	200.956229117	2.0
0.0819	202.087536374	3.0
0.0922	203.22642874	3.0
0.1024	204.35080244	1.0
0.1126	205.47174212	1.0
0.1229	206.600197397	1.0
0.1331	207.714267061	0.0
0.1434	208.83580626	2.0
0.1536	209.943048011	1.0
0.1638	211.046908067	2.0
0.1741	212.158169206	0.0
0.1843	213.255263923	0.0
0.1946	214.359714363	0.0
0.2048	215.450085204	0.0
0.215	216.537125876	0.0
0.2253	217.631454862	0.0
0.2355	218.711833277	1.0
0.2458	219.799455338	0.0
0.256	220.873212329	0.0
0.2662	221.943689891	1.0
0.2765	223.021344717	0.0
0.2867	224.085261535	1.0
0.297	225.156311628	0.0
0.3072	226.213707912	0.0
0.3174	227.267874736	1.0
0.3277	228.329109463	0.0
0.3379	229.376815508	0.0
0.3482	230.431546138	0.0
0.3584	231.472831001	1.0
0.3686	232.510935611	0.0
0.3789	233.556000431	0.0
0.3891	234.587742704	0.0
0.3994	235.626402529	0.0
0.4096	236.651821459	0.0
0.4198	237.674108592	0.0
0.4301	238.703249885	0.0
0.4403	239.719271623	0.0
0.4506	240.742105513	0.0
0.4608	241.751900257	0.0
0.471	242.758610923	0.0
0.4813	243.772071312	0.0
0.4915	244.772612049	0.0
0.5018	245.779861141	0.0
0.512	246.774269762	0.0
0.5222	247.765641299	0.0
0.5325	248.763659713	0.0
0.5427	249.74895533	0.0
0.553	250.740857087	0.0
0.5632	251.720114023	0.0
0.5734	252.696380149	0.0
0.5837	253.679191876	0.0
0.5939	254.649474661	1.0
0.6042	255.62626293	0.0
0.6144	256.590599045	0.0
0.6246	257.551989921	0.0
0.6349	258.519826662	0.0
0.6451	259.475325364	0.0
0.6554	260.437230427	0.0
0.6656	261.386873067	1.0
0.6758	262.333615345	0.0
0.6861	263.286705273	0.0
0.6963	264.227645156	1.0
0.7066	265.174893786	0.0
0.7168	266.110066834	1.0
0.727	267.042383713	0.0
0.7373	267.980951524	0.0
0.7475	268.907554418	1.0
0.7578	269.840369933	1.0
0.768	270.761293861	0.0
0.7782	271.679405139	1.0
0.7885	272.603672104	0.0
0.7987	273.51615646	0.0
0.809	274.434758777	0.0
0.8192	275.341650697	0.0
0.8294	276.245772823	0.0
0.8397	277.155956843	1.0
0.8499	278.054537783	0.0
0.8602	278.959143466	0.0
0.8704	279.852217182	0.0
0.8806	280.742563307	0.0
0.8909	281.638878961	0.0
0.9011	282.523768331	0.0
0.9114	283.414590645	2.0
0.9216	284.294056704	0.0
0.9318	285.170836731	0.0
0.9421	286.053495331	0.0
0.9523	286.924901747	0.0
0.9626	287.802150707	1.0
0.9728	288.668216447	0.0
0.983	289.531637081	0.0
0.9933	290.400846717	0.0
1.0035	291.258975617	0.0
1.0138	292.12285804	0.0
1.024	292.975727639	0.0
1.0342	293.825992436	1.0
1.0445	294.681958029	1.0
1.0547	295.527011721	1.0
1.065	296.377731271	1.0
1.0752	297.217605797	0.0
1.0854	298.054915211	0.0
1.0957	298.897838558	0.0
1.1059	299.730016268	2.0
1.1162	300.567773505	0.0
1.1264	301.394850964	0.0
1.1366	302.219402394	0.0
1.1469	303.049482219	1.0
1.1571	303.868980137	0.0
1.1674	304.693972567	0.0
1.1776	305.508447945	1.0
1.1878	306.320435783	0.0
1.1981	307.13786778	0.0
1.2083	307.944879106	1.0
1.2186	308.757301225	0.0
1.2288	309.559366538	0.0
1.239	310.358982215	0.0
1.2493	311.163959098	0.0
1.2595	311.958674089	0.0
1.2698	312.758717429	0.0
1.28	313.548561769	1.0
1.2902	314.335993797	1.0
1.3005	315.128705343	1.0
1.3107	315.911311356	0.0
1.321	316.699164531	0.0
1.3312	317.476974108	0.0
1.3414	318.252408128	0.0
1.3517	319.033041223	0.0
1.3619	319.803722762	0.0
1.3722	320.579571512	0.0
1.3824	321.345529696	0.0
1.3926	322.10914852	0.0
1.4029	322.877887202	0.0
1.4131	323.636825958	1.0
1.4234	324.400853194	1.0
1.4336	325.155140565	0.0
1.4438	325.90712422	1.0
1.4541	326.664149722	1.0
1.4643	327.411524619	0.0
1.4746	328.163910462	0.0
1.4848	328.906704847	0.0
1.495	329.647230617	2.0
1.5053	330.392721412	0.0
1.5155	331.128708646	1.0
1.5258	331.869630476	1.0
1.536	332.601106991	1.0
1.5462	333.330349459	0.0
1.5565	334.064481299	1.0
1.5667	334.789254384	1.0
1.577	335.518886877	1.0
1.5872	336.239217971	1.0
1.5974	336.957349058	0.0
1.6077	337.680295019	1.0
1.6179	338.394024823	0.0
1.6282	339.112539992	2.0
1.6384	339.821895488	1.0
1.6486	340.529084497	1.0
1.6589	341.241015017	2.0
1.6691	341.943869805	0.0
1.6794	342.651437044	0.0
1.6896	343.349984175	2.0
1.6998	344.046397829	0.0
1.7101	344.747480749	1.0
1.7203	345.439626222	3.0
1.7306	346.136412344	1.0
1.7408	346.824315795	0.0
1.751	347.510118278	3.0
1.7613	348.200518881	2.0
1.7715	348.882118216	2.0
1.7818	349.568287491	3.0
1.792	350.245709439	2.0
1.8022	350.921062431	1.0
1.8125	351.600943482	1.0
1.8227	352.27215737	2.0
1.833	352.947871565	3.0
1.8432	353.614971716	0.0
1.8534	354.280034435	3.0
1.8637	354.94955622	2.0
1.8739	355.610542902	0.0
1.8842	356.275961321	2.0
1.8944	356.932896946	5.0
1.9046	357.587826184	3.0
1.9149	358.247146545	4.0
1.9251	358.898061851	4.0
1.9354	359.553341369	4.0
1.9456	360.200267345	2.0
1.9558	360.845217504	5.0
1.9661	361.494491879	0.0
1.9763	362.135489267	3.0
1.9866	362.780784369	1.0
1.9968	363.417853211	2.0
2.007	364.052976341	1.0
2.0173	364.6923578	1.0
2.0275	365.323588387	1.0
2.0378	365.959051204	6.0
2.048	366.586413104	3.0
2.0582	367.211858939	0.0
2.0685	367.84149822	2.0
2.0787	368.463110821	5.0
2.089	369.088891167	2.0
2.0992	369.706694029	3.0
2.1094	370.32261002	1.0
2.1197	370.942655562	3.0
2.1299	371.554796727	1.0
2.1402	372.171042132	2.0
2.1504	372.779431605	3.0
2.1606	373.385962958	4.0
2.1709	373.99656094	4.0
2.1811	374.599374983	7.0
2.1914	375.206230731	2.0
2.2016	375.805350246	3.0
2.2118	376.402639953	2.0
2.2221	377.003934326	4.0
2.2323	377.597563363	6.0
2.2426	378.195172522	3.0
2.2528	378.785163325	6.0
2.263	379.3733522	6.0
2.2733	379.965484722	3.0
2.2835	380.550068705	7.0
2.2938	381.138572164	10.0
2.304	381.719573348	6.0
2.3142	382.298800059	9.0
2.3245	382.881910329	3.0
2.3347	383.457587075	6.0
2.345	384.037123577	7.0
2.3552	384.609272115	6.0
2.3654	385.179673218	7.0
2.3757	385.753898706	9.0
2.3859	386.320803934	3.0
2.3962	386.891510108	6.0
2.4064	387.454940886	6.0
2.4166	388.016650856	9.0
2.4269	388.582126939	4.0
2.4371	389.140394299	8.0
2.4474	389.702404692	11.0
2.4576	390.257250543	6.0
2.4678	390.810401804	8.0
2.4781	391.367261796	10.0
2.4883	391.917022903	7.0
2.4986	392.47047001	10.0
2.5088	393.016861741	8.0
2.519	393.561584703	12.0
2.5293	394.109959885	4.0
2.5395	394.651344348	8.0
2.5498	395.196358647	9.0
2.56	395.734425072	13.0
2.5702	396.270848155	10.0
2.5805	396.81086781	13.0
2.5907	397.344003263	10.0
2.601	397.880713244	16.0
2.6112	398.410581216	15.0
2.6214	398.938830884	14.0
2.6317	399.470622324	7.0
2.6419	399.995634455	14.0
2.6522	400.524166651	11.0
2.6624	401.045961087	11.0
2.6726	401.566161878	10.0
2.6829	402.089850475	7.0
2.6931	402.606863059	4.0
2.7034	403.127342073	7.0
2.7136	403.641185989	11.0
2.7238	404.153460543	9.0
2.7341	404.66916976	7.0
2.7443	405.178304685	13.0
2.7546	405.690853222	12.0
2.7648	406.19686776	4.0
2.775	406.701336847	5.0
2.7853	407.209188264	10.0
2.7955	407.710565561	10.0
2.8058	408.215304457	11.0
2.816	408.713608912	10.0
2.8262	409.210391464	11.0
2.8365	409.710504809	10.0
2.8467	410.20424268	6.0
2.857	410.70129093	8.0
2.8672	411.192002779	13.0
2.8774	411.681215915	8.0
2.8877	412.173709093	5.0
2.8979	412.659923938	9.0
2.9082	413.149398723	9.0
2.9184	413.632633655	6.0
2.9286	414.114392708	12.0
2.9389	414.599381826	8.0
2.9491	415.078188274	13.0
2.9594	415.56020499	16.0
2.9696	416.036076929	5.0
2.9798	416.510495477	10.0
2.9901	416.988094874	9.0
3.0003	417.459605805	10.0
3.0106	417.93427809	6.0
3.0208	418.402899224	10.0
3.031	418.870089114	6.0
3.0413	419.340411386	7.0
3.0515	419.804737961	11.0
3.0618	420.272177721	5.0
3.072	420.733658531	11.0
3.0822	421.193729904	5.0
3.0925	421.656885931	6.0
3.1027	422.114137618	7.0
3.113	422.574455054	8.0
3.1232	423.028904336	7.0
3.1334	423.481965657	9.0
3.1437	423.938064631	4.0
3.1539	424.388349228	12.0
3.1642	424.841652862	7.0
3.1744	425.289177755	10.0
3.1846	425.735335834	6.0
3.1949	426.184485282	10.0
3.2051	426.627908947	4.0
3.2154	427.074305648	6.0
3.2256	427.515011657	12.0
3.2358	427.954371678	4.0
3.2461	428.39667749	7.0
3.2563	428.833344762	8.0
3.2666	429.272939769	10.0
3.2768	429.706930793	6.0
3.287	430.139596339	5.0
3.2973	430.57516279	10.0
3.3075	431.005176614	12.0
3.3178	431.438073564	8.0
3.328	431.865451919	6.0
3.3382	432.291524991	10.0
3.3485	432.720454768	9.0
3.3587	433.143916523	9.0
3.369	433.570217475	9.0
3.3792	433.991083916	6.0
3.3894	434.410664964	10.0
3.3997	434.833059189	11.0
3.4099	435.250068708	10.0
3.4202	435.669874162	8.0
3.4304	436.084327912	8.0
3.4406	436.497515854	10.0
3.4509	436.913474108	14.0
3.4611	437.324129702	9.0
3.4714	437.737538632	7.0
3.4816	438.145677399	19.0
3.4918	438.552569645	10.0
3.5021	438.962189993	14.0
3.5123	439.366588477	11.0
3.5226	439.773698344	8.0
3.5328	440.17561835	10.0
3.543	440.576310827	14.0
3.5533	440.979689839	14.0
3.5635	441.377926552	11.0
3.5738	441.778833334	10.0
3.584	442.174629332	14.0
3.5942	442.569216506	10.0
3.6045	442.96644928	8.0
3.6147	443.358618107	12.0
3.625	443.753416321	6.0
3.6352	444.143181623	15.0
3.6454	444.531756519	11.0
3.6557	444.922936705	20.0
3.6659	445.309130102	10.0
3.6762	445.697912822	14.0
3.6864	446.081739317	8.0
3.6966	446.464393544	7.0
3.7069	446.849613364	14.0
3.7171	447.229922379	13.0
3.7274	447.612781263	11.0
3.7376	447.990759439	12.0
3.7478	448.367583209	9.0
3.7581	448.74693348	12.0
3.7683	449.121447772	10.0
3.7786	449.498473081	9.0
3.7888	449.870692049	6.0
3.799	450.2417742	18.0
3.8093	450.615344357	10.0
3.8195	450.984152219	14.0
3.8298	451.355432838	7.0
3.84	451.72198035	13.0
3.8502	452.087408367	8.0
3.8605	452.455286479	9.0
3.8707	452.81847486	6.0
3.881	453.184098321	9.0
3.8912	453.545060792	9.0
3.9014	453.904920826	10.0
3.9117	454.267193623	8.0
3.9219	454.624848146	11.0
3.9322	454.984900646	4.0
3.9424	455.340363175	7.0
3.9526	455.694740064	8.0
3.9629	456.051492954	3.0
3.9731	456.403697938	10.0
3.9834	456.758264361	12.0
3.9936	457.10831075	6.0
4.0038	457.45728804	5.0
4.0141	457.808605129	10.0
4.0243	458.155443607	8.0
4.0346	458.504607544	12.0
4.0448	458.849320318	4.0
4.055	459.192980283	11.0
4.0653	459.538944396	11.0
4.0755	459.880498137	7.0
4.0858	460.224341904	11.0
4.096	460.563802331	11.0
4.1062	460.90222599	13.0
4.1165	461.242918689	8.0
4.1267	461.579268217	5.0
4.137	461.917872878	6.0
4.1472	462.252160986	4.0
4.1574	462.585428125	6.0
4.1677	462.920929729	9.0
4.1779	463.25215434	9.0
4.1882	463.585599722	7.0
4.1984	463.914794322	10.0
4.2086	464.242983509	9.0
4.2189	464.573373116	5.0
4.2291	464.899550896	6.0
4.2394	465.22791561	9.0
4.2496	465.552094312	5.0
4.2598	465.875282919	4.0
4.2701	466.200638419	7.0
4.2803	466.521846268	11.0
4.2906	466.845207728	13.0
4.3008	467.164446957	14.0
4.311	467.482711179	7.0
4.3213	467.803109275	9.0
4.3315	468.119422918	8.0
4.3418	468.437857358	7.0
4.352	468.752232378	8.0
4.3622	469.065647245	7.0
4.3725	469.381163474	9.0
4.3827	469.692657484	8.0
4.393	470.006239977	12.0
4.4032	470.315824901	4.0
4.4134	470.624464303	8.0
4.4237	470.935173049	11.0
4.4339	471.241920862	8.0
4.4442	471.550725336	9.0
4.4544	471.855593152	5.0
4.4646	472.159529852	10.0
4.4749	472.465504366	10.0
4.4851	472.767578299	3.0
4.4954	473.071677556	8.0
4.5056	473.371900137	8.0
4.5158	473.671205791	13.0
4.5261	473.972518207	7.0
4.5363	474.269989476	8.0
4.5466	474.569455208	5.0
4.5568	474.865103334	10.0
4.567	475.159848503	10.0
4.5773	475.456569858	11.0
4.5875	475.749508592	10.0
4.5978	476.044411401	13.0
4.608	476.335554772	13.0
4.6182	476.625808944	8.0
4.6285	476.918009191	10.0
4.6387	477.206484453	13.0
4.649	477.496893863	10.0
4.6592	477.783601117	10.0
4.6694	478.06943272	8.0
4.6797	478.357180747	4.0
4.6899	478.641260546	5.0
4.7002	478.927245022	11.0
4.7104	479.209583752	12.0
4.7206	479.491060173	5.0
4.7309	479.774423818	10.0
4.7411	480.054175126	9.0
4.7514	480.335802092	4.0
4.7616	480.61383886	12.0
4.7718	480.891026459	9.0
4.7821	481.170072525	9.0
4.7923	481.445561296	5.0
4.8026	481.722897145	4.0
4.8128	481.9966975	8.0
4.823	482.269661625	6.0
4.8333	482.5444559	8.0
4.8435	482.815747081	7.0
4.8538	483.088857197	6.0
4.864	483.358485688	8.0
4.8742	483.627290691	5.0
4.8845	483.897897958	11.0
4.8947	484.165055509	6.0
4.905	484.434004278	7.0
4.9152	484.699524472	8.0
4.9254	484.964233725	12.0
4.9357	485.230717782	6.0
4.9459	485.493804685	9.0
4.9562	485.758655513	4.0
4.9664	486.020130008	7.0
4.9766	486.280805918	11.0
4.9869	486.543229589	4.0
4.9971	486.802307868	10.0
5.0074	487.063123196	6.0
5.0176	487.320613636	8.0
5.0278	487.577317657	9.0
5.0381	487.83574281	7.0
5.0483	488.090873544	9.0
5.0586	488.34771486	5.0
5.0688	488.601281949	11.0
5.079	488.854074602	2.0
5.0893	489.108562162	9.0
5.0995	489.359805499	6.0
5.1098	489.612733355	5.0
5.12	489.862436871	8.0
5.1302	490.111377753	5.0
5.1405	490.361987716	6.0
5.1507	490.609402889	7.0
5.161	490.858476913	5.0
5.1712	491.104375727	5.0
5.1814	491.349523526	5.0
5.1917	491.596314975	9.0
5.2019	491.839960312	8.0
5.2122	492.085239225	8.0
5.2224	492.327391309	10.0
5.2326	492.56880382	9.0
5.2429	492.811834937	4.0
5.2531	493.051767879	10.0
5.2634	493.293309507	3.0
5.2736	493.531771948	9.0
5.2838	493.769506085	7.0
5.2941	494.008834166	8.0
5.3043	494.245111279	8.0
5.3146	494.482972565	5.0
5.3248	494.717801582	8.0
5.335	494.951913394	7.0
5.3453	495.187594861	11.0
5.3555	495.420271847	6.0
5.3658	495.65450887	11.0
5.376	495.885759825	3.0
5.3862	496.116304503	7.0
5.3965	496.34839492	7.0
5.4067	496.577526635	5.0
5.417	496.808194616	12.0
5.4272	497.035922028	5.0
5.4374	497.262953923	7.0
5.4477	497.491508006	5.0
5.4579	497.717148469	8.0
5.4682	497.944301789	7.0
5.4784	498.168559346	6.0
5.4886	498.392131983	9.0
5.4989	498.617203615	7.0
5.5091	498.839406021	8.0
5.5194	499.063098233	6.0
5.5296	499.283938804	3.0
5.5398	499.504104892	10.0
5.5501	499.725747134	8.0
5.5603	499.944563868	3.0
5.5706	500.164847709	9.0
5.5808	500.382323359	6.0
5.591	500.599134802	6.0
5.6013	500.817399908	6.0
5.6115	501.032882557	8.0
5.6218	501.24980996	10.0
5.632	501.463971959	12.0
5.6422	501.677479872	9.0
5.6525	501.892419299	7.0
5.6627	502.104618665	8.0
5.673	502.31824077	6.0
5.6832	502.529139608	8.0
5.6934	502.739394327	8.0
5.7037	502.951058747	5.0
5.7139	503.160024857	7.0
5.7242	503.370392028	7.0
5.7344	503.578077425	11.0
5.7446	503.785128518	5.0
5.7549	503.993567833	6.0
5.7651	504.199349951	8.0
5.7754	504.406511782	7.0
5.7856	504.611032702	9.0
5.7958	504.814928982	6.0
5.8061	505.020192332	6.0
5.8163	505.222838972	9.0
5.8266	505.426844303	6.0
5.8368	505.628248962	10.0
5.847	505.829038499	8.0
5.8573	506.031174275	5.0
5.8675	506.230733213	5.0
5.8778	506.431630139	3.0
5.888	506.62996602	3.0
5.8982	506.82769615	4.0
5.9085	507.026752008	2.0
5.9187	507.22327029	5.0
5.929	507.421106174	9.0
5.9392	507.616420034	6.0
5.9494	507.811137374	6.0
5.9597	508.007160242	7.0
5.9699	508.200684198	3.0
5.9802	508.39550568	4.0
5.9904	508.587843566	6.0
6.0006	508.779594021	7.0
6.0109	508.972630112	7.0
6.0211	509.163205366	4.0
6.0314	509.355058377	2.0
6.0416	509.544465634	0.0
6.0518	509.73329441	7.0
6.0621	509.923389233	5.0
6.0723	510.111060715	6.0
6.0826	510.299990484	4.0
6.0928	510.486511765	3.0
6.103	510.67246338	4.0
6.1133	510.85966175	3.0
6.1235	511.044473705	5.0
6.1338	511.230524773	5.0
6.144	511.414204052	5.0
6.1542	511.597322344	6.0
6.1645	511.781668395	6.0
6.1747	511.963664392	3.0
6.185	512.146880622	1.0
6.1952	512.327761202	2.0
6.2054	512.508089343	7.0
6.2157	512.689626535	4.0
6.2259	512.86884948	7.0
6.2362	513.049274067	2.0
6.2464	513.22739859	2.0
6.2566	513.404979093	0.0
6.2669	513.583750224	2.0
6.2771	513.760242371	2.0
6.2874	513.93791785	4.0
6.2976	514.113328312	1.0
6.3078	514.288203041	2.0
6.3181	514.464250258	4.0
6.3283	514.638053215	3.0
6.3386	514.813021474	3.0
6.3488	514.985759227	1.0
6.359	515.157969411	4.0
6.3693	515.331334218	4.0
6.3795	515.50248896	2.0
6.3898	515.674791248	0.0
6.4	515.844897017	3.0
6.4102	516.014483255	2.0
6.4205	516.185206523	2.0
6.4307	516.353753401	1.0
6.441	516.52343034	2.0
6.4512	516.690944227	2.0
6.4614	516.8579465	0.0
6.4717	517.026068477	1.0
6.4819	517.192047226	1.0
6.4922	517.359138818	2.0
6.5024	517.524100316	3.0
6.5126	517.688557995	2.0
6.5229	517.854118319	4.0
6.5331	518.017568069	1.0
6.5434	518.182113706	2.0
6.5536	518.344561706	1.0
6.5638	518.506513563	2.0
6.5741	518.669551263	2.0
6.5843	518.830510549	0.0
6.5946	518.992549024	2.0
6.6048	519.152521823	1.0
6.615	519.312006039	5.0
6.6253	519.472559553	2.0
6.6355	519.631066322	4.0
6.6458	519.790635836	1.0
6.656	519.948171148	1.0
6.6662	520.105225322	1.0
6.6765	520.263332502	0.0
6.6867	520.419424122	1.0
6.697	520.576562294	3.0
6.7072	520.731697259	3.0
6.7174	520.886358418	2.0
6.7277	521.042056537	1.0
6.7379	521.195769808	0.0
6.7482	521.350513684	1.0
6.7584	521.503284877	1.0
6.7686	521.655589481	2.0
6.7789	521.808915247	1.0
6.7891	521.960286407	3.0
6.7994	522.11267247	2.0
6.8096	522.263115906	1.0
6.8198	522.413099863	0.0
6.8301	522.564089423	2.0
6.8403	522.713154158	2.0
6.8506	522.863218333	1.0
6.8608	523.01136948	1.0
6.871	523.15906815	0.0
6.8813	523.307757099	0.0
6.8915	523.454550553	0.0
6.9018	523.602328218	2.0
6.912	523.748222004	0.0
6.9222	523.893670207	0.0
6.9325	524.0400936	1.0
6.9427	524.18465038	0.0
6.953	524.330176374	1.0
6.9632	524.473847194	0.0
6.9734	524.61707922	0.0
6.9837	524.761271577	0.0
6.9939	524.903625763	0.0
7.0042	525.046934394	0.0
7.0144	525.188416119	0.0
7.0246	525.329465736	0.0
7.0349	525.471461052	1.0
7.0451	525.611646203	1.0
7.0554	525.752771258	0.0
7.0656	525.892097243	0.0
7.0758	526.030997703	1.0
7.0861	526.170829454	2.0
7.0963	526.308878621	1.0
7.1066	526.44785337	0.0
7.1168	526.585056461	0.0
7.127	526.721840512	0.0
7.1373	526.859541663	0.0
7.1475	526.995487391	1.0
7.1578	527.132344599	0.0
7.168	527.267457143	2.0
7.1782	527.402157031	1.0
7.1885	527.537760046	1.0
7.1987	527.671634385	2.0
7.209	527.806406316	0.0
7.2192	527.939460167	0.0
7.2294	528.072107649	0.0
7.2397	528.205644497	0.0
7.2499	528.337479009	1.0
7.2602	528.470197436	1.0
7.2704	528.60122396	1.0
7.2806	528.731850309	0.0
7.2909	528.863352472	2.0
7.3011	528.993178237	0.0
7.3114	529.123874449	0.0
7.3216	529.252904538	0.0
7.3318	529.381540549	0.0
7.3421	529.511039029	0.0
7.3523	529.638886654	0.0
7.3626	529.767591464	3.0
7.3728	529.894655537	0.0
7.383	530.021331536	0.0
7.3933	530.148856863	1.0
7.4035	530.274756489	1.0
7.4138	530.401500239	2.0
7.424	530.526628252	0.0
7.4342	530.651374104	1.0
7.4445	530.776956343	0.0
7.4547	530.900937652	0.0
7.465	531.025750222	2.0
7.4752	531.148971674	0.0
7.4854	531.271816788	0.0
7.4957	531.395485546	2.0
7.5059	531.517577766	2.0
7.5162	531.640488583	0.0
7.5264	531.761832524	0.0
7.5366	531.882805862	1.0
7.5469	532.004590293	0.0
7.5571	532.124822209	1.0
7.5674	532.245860248	1.0
7.5776	532.365355286	0.0
7.5878	532.484485368	0.0
7.5981	532.604414184	0.0
7.6083	532.722814141	2.0
7.6186	532.842007937	2.0
7.6288	532.959682244	0.0
7.639	533.076997155	0.0
7.6493	533.19509863	0.0
7.6595	533.311694541	2.0
7.6698	533.429072196	0.0
7.68	533.544953513	1.0
7.6902	533.66048091	0.0
7.7005	533.776782888	1.0
7.7107	533.89160224	0.0
7.721	534.007191426	0.0
7.7312	534.121307074	1.0
7.7414	534.235074194	2.0
7.7517	534.349604091	2.0
7.7619	534.462673955	1.0
7.7722	534.576501922	0.0
7.7824	534.688878803	0.0
7.7926	534.800912468	0.0
7.8029	534.913697287	2.0
7.8131	535.025044319	0.0
7.8234	535.137137903	1.0
7.8336	535.247802511	0.0
7.8438	535.358129131	0.0
7.8541	535.469195462	1.0
7.8643	535.578845912	0.0
7.8746	535.689231539	0.0
7.8848	535.798209964	1.0
7.895	535.906855551	0.0
7.9053	536.016229577	1.0
7.9155	536.124209297	3.0
7.9258	536.232912991	0.0
7.936	536.340230925	0.0
7.9462	536.447221092	0.0
7.9565	536.554928599	2.0
7.9667	536.661263044	0.0
7.977	536.768310434	0.0
7.9872	536.873993177	1.0
7.9974	536.979353147	0.0
8.0077	537.085419528	1.0
8.0179	537.190133768	0.0
8.0282	537.295550089	0.0
8.0384	537.399622557	0.0
8.0486	537.50337717	0.0
8.0589	537.60782743	0.0
8.0691	537.710946152	2.0
8.0794	537.814756257	0.0
8.0896	537.917242985	0.0
8.0998	538.019416701	0.0
8.1101	538.122275465	0.0
8.1203	538.223822979	1.0
8.1306	538.326051342	0.0
8.1408	538.426976492	1.0
