TL-DOS Lehrstuhlversuch
detector=R1406904
job_number=2015-10-30-003
irradiation_dose [mSv]=0.2

[BEGIN DATA]
time [sec] 	 temperature [K] 	 photoncount 
0.0	263.055144974	0.0
0.0102	263.702306934	0.0
0.0205	264.354559837	0.0
0.0307	264.999240957	1.0
0.041	265.648993504	0.0
0.0512	266.291203294	1.0
0.0614	266.932186978	2.0
0.0717	267.578213003	0.0
0.0819	268.21673953	2.0
0.0922	268.86028907	6.0
0.1024	269.49636786	0.0
0.1126	270.13123225	1.0
0.1229	270.771090843	2.0
0.1331	271.403521535	2.0
0.1434	272.040927285	2.0
0.1536	272.670933607	1.0
0.1638	273.299737122	0.0
0.1741	273.933487162	1.0
0.1843	274.559880213	0.0
0.1946	275.191200826	1.0
0.2048	275.815192653	1.0
0.215	276.437993155	0.0
0.2253	277.065692959	0.0
0.2355	277.686106008	0.0
0.2458	278.311399579	0.0
0.256	278.929434327	0.0
0.2662	279.546289125	0.0
0.2765	280.167996453	0.0
0.2867	280.782486591	0.0
0.297	281.401810656	0.0
0.3072	282.013945198	0.0
0.3174	282.624911054	0.0
0.3277	283.240683114	0.0
0.3379	283.849306885	0.0
0.3482	284.462718435	2.0
0.3584	285.069009098	0.0
0.3686	285.674142232	0.0
0.3789	286.284035686	0.0
0.3891	286.886849094	0.0
0.3994	287.494404574	0.0
0.4096	288.094907147	0.0
0.4198	288.694263243	0.0
0.4301	289.298334213	0.0
0.4403	289.895392728	0.0
0.4506	290.497148044	0.0
0.4608	291.091917785	0.0
0.471	291.685551994	0.0
0.4813	292.283856066	0.0
0.4915	292.875214628	0.0
0.5018	293.471225152	0.0
0.512	294.060316792	0.0
0.5222	294.648283739	0.0
0.5325	295.240875968	1.0
0.5427	295.826588993	0.0
0.553	296.41690957	0.0
0.5632	297.000377315	0.0
0.5734	297.582731104	0.0
0.5837	298.169666019	0.0
0.5939	298.749787404	1.0
0.6042	299.334472354	2.0
0.6144	299.912369893	0.0
0.6246	300.489164112	1.0
0.6349	301.070495721	0.0
0.6451	301.645078848	0.0
0.6554	302.224181972	0.0
0.6656	302.796562484	0.0
0.6758	303.367850208	0.0
0.6861	303.943632005	0.0
0.6963	304.512729746	0.0
0.7066	305.086304333	0.0
0.7168	305.653220486	0.0
0.727	306.219054284	0.0
0.7373	306.789339252	0.0
0.7475	307.353003975	0.0
0.7578	307.921102803	0.0
0.768	308.482606765	0.0
0.7782	309.043038704	0.0
0.7885	309.607879319	0.0
0.7987	310.166162891	0.0
0.809	310.728838237	0.0
0.8192	311.284981676	0.0
0.8294	311.840063326	1.0
0.8397	312.399511564	0.0
0.8499	312.952465357	0.0
0.8602	313.509768998	1.0
0.8704	314.060603089	0.0
0.8806	314.610385528	0.0
0.8909	315.164492869	1.0
0.9011	315.712167764	0.0
0.9114	316.264150981	0.0
0.9216	316.809726412	0.0
0.9318	317.354260231	0.0
0.9421	317.903077662	0.0
0.9523	318.445524057	0.0
0.9626	318.992237643	0.0
0.9728	319.532604615	0.0
0.983	320.07193992	1.0
0.9933	320.615517943	0.0
1.0035	321.152785752	0.0
1.0138	321.694280015	0.0
1.024	322.229488254	0.0
1.0342	322.763674674	0.0
1.0445	323.302063308	0.0
1.0547	323.83420197	1.0
1.065	324.370526737	0.0
1.0752	324.900625491	1.0
1.0854	325.429712181	0.0
1.0957	325.962960967	1.0
1.1059	326.490019449	0.0
1.1162	327.021224071	0.0
1.1264	327.546262119	0.0
1.1366	328.070297765	0.0
1.1469	328.598455773	0.0
1.1571	329.120482573	0.0
1.1674	329.646615932	1.0
1.1776	330.166641587	0.0
1.1878	330.68567441	0.0
1.1981	331.208790239	1.0
1.2083	331.725833394	0.0
1.2186	332.246943903	0.0
1.2288	332.762005017	0.0
1.239	333.276082777	0.0
1.2493	333.794204564	0.0
1.2595	334.306311651	1.0
1.2698	334.822447262	0.0
1.28	335.33259123	0.0
1.2902	335.841761232	0.0
1.3005	336.354936654	0.0
1.3107	336.862154796	1.0
1.321	337.373363004	0.0
1.3312	337.878636768	1.0
1.3414	338.382945865	0.0
1.3517	338.891222143	0.0
1.3619	339.393598014	0.0
1.3722	339.899925858	0.0
1.3824	340.400375914	0.0
1.3926	340.899870511	0.0
1.4029	341.403294416	0.0
1.4131	341.900874244	0.0
1.4234	342.402368316	0.0
1.4336	342.898040714	0.0
1.4438	343.392766774	0.0
1.4541	343.891384631	1.0
1.4643	344.384214201	0.0
1.4746	344.880920648	0.0
1.4848	345.371860999	0.0
1.495	345.861864046	0.0
1.5053	346.355721736	0.0
1.5155	346.843846399	0.0
1.5258	347.335810927	0.0
1.536	347.822064406	0.0
1.5462	348.30738953	1.0
1.5565	348.796532497	0.0
1.5667	349.279997169	0.0
1.577	349.767265048	0.0
1.5872	350.248876399	0.0
1.5974	350.729568259	0.0
1.6077	351.214041513	0.0
1.6179	351.692890681	0.0
1.6282	352.175506749	0.0
1.6384	352.652520289	1.0
1.6486	353.128623117	0.0
1.6589	353.608471239	0.0
1.6691	354.082748967	1.0
1.6794	354.560757632	0.0
1.6896	355.033217257	1.0
1.6998	355.504774862	0.0
1.7101	355.980042007	0.0
1.7203	356.449791937	0.0
1.7306	356.923237186	0.0
1.7408	357.391186369	0.0
1.751	357.858242144	0.0
1.7613	358.328972046	0.0
1.7715	358.794237403	0.0
1.7818	359.263162801	0.0
1.792	359.726644602	0.0
1.8022	360.189241526	0.0
1.8125	360.655477499	0.0
1.8227	361.116301096	1.0
1.833	361.580749793	0.0
1.8432	362.039806862	2.0
1.8534	362.497987501	1.0
1.8637	362.959772448	3.0
1.8739	363.41619669	2.0
1.8842	363.876211424	1.0
1.8944	364.330886002	0.0
1.9046	364.784692517	2.0
1.9149	365.242068931	2.0
1.9251	365.694135817	3.0
1.9354	366.149758917	2.0
1.9456	366.600092843	0.0
1.9558	367.049566993	0.0
1.9661	367.502576961	4.0
1.9763	367.950328089	1.0
1.9866	368.401601482	1.0
1.9968	368.847636194	1.0
2.007	369.292819338	2.0
2.0173	369.741504546	0.0
2.0275	370.184981118	1.0
2.0378	370.631946329	5.0
2.048	371.073722871	6.0
2.0582	371.514655975	3.0
2.0685	371.959057709	1.0
2.0787	372.398300533	1.0
2.089	372.84099869	4.0
2.0992	373.278557714	1.0
2.1094	373.715281352	3.0
2.1197	374.155440505	3.0
2.1299	374.590489999	6.0
2.1402	375.02896184	4.0
2.1504	375.462343609	7.0
2.1606	375.894897967	2.0
2.1709	376.330855043	9.0
2.1811	376.76175124	5.0
2.1914	377.196037111	5.0
2.2016	377.625281505	2.0
2.2118	378.053706385	4.0
2.2221	378.485501499	2.0
2.2323	378.91228405	1.0
2.2426	379.342423914	7.0
2.2528	379.76757043	5.0
2.263	380.191905257	3.0
2.2733	380.619578143	5.0
2.2835	381.042286318	8.0
2.2938	381.468319756	7.0
2.304	381.889407516	4.0
2.3142	382.309691336	5.0
2.3245	382.733281347	5.0
2.3347	383.151954044	10.0
2.345	383.573920259	7.0
2.3552	383.990988011	9.0
2.3654	384.407259497	7.0
2.3757	384.826805611	9.0
2.3859	385.241481356	9.0
2.3962	385.659419176	13.0
2.4064	386.072505297	8.0
2.4166	386.484802755	5.0
2.4269	386.900343579	8.0
2.4371	387.311060529	13.0
2.4474	387.725008413	7.0
2.4576	388.134150915	10.0
2.4678	388.542512283	11.0
2.4781	388.954086053	7.0
2.4883	389.360882002	12.0
2.4986	389.77087804	8.0
2.5088	390.176114572	11.0
2.519	390.580577427	8.0
2.5293	390.988222016	19.0
2.5395	391.391134397	12.0
2.5498	391.797216316	13.0
2.56	392.198584167	14.0
2.5702	392.599185727	19.0
2.5805	393.002938646	9.0
2.5907	393.402004534	15.0
2.601	393.804209701	16.0
2.6112	394.201745804	15.0
2.6214	394.598522932	16.0
2.6317	394.998421333	21.0
2.6419	395.39367745	15.0
2.6522	395.792042875	16.0
2.6624	396.185783811	12.0
2.6726	396.578773018	20.0
2.6829	396.9748537	18.0
2.6931	397.366336416	25.0
2.7034	397.760898757	17.0
2.7136	398.150880757	16.0
2.7238	398.540118204	23.0
2.7341	398.932417614	17.0
2.7443	399.320162952	24.0
2.7546	399.710958515	22.0
2.7648	400.097217465	17.0
2.775	400.48273897	20.0
2.7853	400.871293206	28.0
2.7955	401.255336847	22.0
2.8058	401.642401593	19.0
2.816	402.024973036	20.0
2.8262	402.406814074	22.0
2.8365	402.79165889	21.0
2.8467	403.172036172	26.0
2.857	403.555405719	32.0
2.8672	403.934324857	19.0
2.8774	404.312520564	30.0
2.8877	404.693691373	33.0
2.8979	405.0704373	32.0
2.9082	405.450146923	26.0
2.9184	405.825448625	34.0
2.9286	406.200033803	21.0
2.9389	406.577565679	18.0
2.9491	406.950714916	24.0
2.9594	407.326799557	28.0
2.9696	407.698518358	27.0
2.9798	408.069527474	24.0
2.9901	408.443455159	24.0
3.0003	408.813042043	30.0
3.0106	409.185536308	21.0
3.0208	409.553706412	23.0
3.031	409.921173607	22.0
3.0413	410.291531507	20.0
3.0515	410.657590048	28.0
3.0618	411.026528213	21.0
3.072	411.391183499	22.0
3.0822	411.755142586	19.0
3.0925	412.121964782	11.0
3.1027	412.484528663	26.0
3.113	412.849944678	16.0
3.1232	413.211118701	21.0
3.1334	413.571603171	19.0
3.1437	413.934923417	19.0
3.1539	414.294026001	15.0
3.1642	414.65595349	19.0
3.1744	415.013679485	19.0
3.1846	415.37072251	20.0
3.1949	415.730574238	16.0
3.2051	416.086248569	13.0
3.2154	416.444720836	15.0
3.2256	416.799031719	11.0
3.2358	417.152666154	17.0
3.2461	417.509082477	13.0
3.2563	417.861361283	8.0
3.2666	418.216411315	16.0
3.2768	418.56733969	15.0
3.287	418.917598074	11.0
3.2973	419.27061179	13.0
3.3075	419.619527488	11.0
3.3178	419.971187955	11.0
3.328	420.318766115	9.0
3.3382	420.665680679	17.0
3.3485	421.015324269	9.0
3.3587	421.360908966	8.0
3.369	421.709212228	11.0
3.3792	422.053472155	12.0
3.3894	422.397074822	11.0
3.3997	422.743380462	19.0
3.4099	423.085665957	15.0
3.4202	423.430644064	13.0
3.4304	423.771617437	18.0
3.4406	424.111939824	15.0
3.4509	424.45493938	19.0
3.4611	424.793957171	14.0
3.4714	425.135641867	12.0
3.4816	425.473360061	17.0
3.4918	425.810433485	15.0
3.5021	426.150158519	20.0
3.5123	426.4859398	14.0
3.5226	426.824362528	20.0
3.5328	427.15885662	22.0
3.543	427.492712097	15.0
3.5533	427.82919387	18.0
3.5635	428.16176954	21.0
3.5738	428.496961439	23.0
3.584	428.828262209	26.0
3.5942	429.15893046	13.0
3.6045	429.492199935	21.0
3.6147	429.821600597	21.0
3.625	430.153592512	24.0
3.6352	430.481730445	15.0
3.6454	430.809241897	25.0
3.6557	431.139329741	25.0
3.6659	431.465585706	17.0
3.6762	431.794408186	23.0
3.6864	432.119413477	18.0
3.6966	432.443798268	19.0
3.7069	432.770734854	17.0
3.7171	433.093876144	18.0
3.7274	433.419559447	23.0
3.7376	433.741462002	28.0
3.7478	434.062749981	22.0
3.7581	434.386565395	21.0
3.7683	434.706621744	21.0
3.7786	435.029195838	20.0
3.7888	435.348025279	15.0
3.799	435.666246011	23.0
3.8093	435.986970048	22.0
3.8195	436.303970908	23.0
3.8298	436.623465476	22.0
3.84	436.93925114	28.0
3.8502	437.254433907	24.0
3.8605	437.57209608	29.0
3.8707	437.886070621	21.0
3.881	438.202515063	22.0
3.8912	438.515286009	19.0
3.9014	438.827459813	26.0
3.9117	439.142089354	34.0
3.9219	439.453066466	23.0
3.9322	439.766489901	29.0
3.9424	440.076274909	27.0
3.9526	440.385468476	28.0
3.9629	440.697094335	26.0
3.9731	441.005102635	33.0
3.9834	441.315533903	22.0
3.9936	441.62236148	28.0
4.0038	441.928603261	19.0
4.0141	442.237254115	30.0
4.0243	442.542321945	29.0
4.0346	442.849789611	28.0
4.0448	443.15368799	26.0
4.055	443.457006166	42.0
4.0653	443.762710415	25.0
4.0755	444.064865847	23.0
4.0858	444.369398204	19.0
4.096	444.670395349	29.0
4.1062	444.97081783	32.0
4.1165	445.273603606	19.0
4.1267	445.572874443	20.0
4.137	445.874499515	15.0
4.1472	446.172623123	25.0
4.1574	446.470177554	18.0
4.1677	446.770072717	28.0
4.1779	447.066486499	23.0
4.1882	447.365232039	19.0
4.1984	447.660509544	23.0
4.2086	447.955223305	16.0
4.2189	448.252255452	21.0
4.2291	448.545839454	22.0
4.2394	448.841732953	23.0
4.2496	449.134191525	20.0
4.2598	449.426091736	27.0
4.2701	449.720288199	30.0
4.2803	450.011069435	23.0
4.2906	450.304138121	23.0
4.3008	450.593804672	26.0
4.311	450.882918192	17.0
4.3213	451.174306043	20.0
4.3315	451.462311271	20.0
4.3418	451.752582112	22.0
4.352	452.039483296	28.0
4.3622	452.325836729	17.0
4.3725	452.614442781	22.0
4.3827	452.899698503	12.0
4.393	453.187198208	24.0
4.4032	453.471360426	27.0
4.4134	453.754980123	25.0
4.4237	454.040830932	17.0
4.4339	454.323363397	16.0
4.4442	454.608118422	14.0
4.4544	454.889567822	16.0
4.4646	455.170479879	24.0
4.4749	455.45360175	25.0
4.4851	455.733436955	14.0
4.4954	456.015473503	29.0
4.5056	456.294235984	21.0
4.5158	456.572466251	25.0
4.5261	456.852885236	21.0
4.5363	457.130048932	16.0
4.5466	457.409392955	15.0
4.5568	457.685494167	22.0
4.567	457.961068247	23.0
4.5773	458.23881015	20.0
4.5875	458.513327841	9.0
4.5978	458.790005043	27.0
4.608	459.063470394	20.0
4.6182	459.336413645	18.0
4.6285	459.611504022	20.0
4.6387	459.883400968	21.0
4.649	460.15743681	12.0
4.6592	460.428291462	13.0
4.6694	460.698629	26.0
4.6797	460.971093165	27.0
4.6899	461.240394387	25.0
4.7002	461.511814084	14.0
4.7104	461.780082962	17.0
4.7206	462.047839662	18.0
4.7309	462.317702687	18.0
4.7411	462.584432964	21.0
4.7514	462.853261493	16.0
4.7616	463.118969282	25.0
4.7718	463.384169783	17.0
4.7821	463.651456501	27.0
4.7923	463.915640378	22.0
4.8026	464.181902475	18.0
4.8128	464.445073625	17.0
4.823	464.70774233	16.0
4.8333	464.972477336	16.0
4.8435	465.234139122	18.0
4.8538	465.497859289	22.0
4.864	465.758518017	14.0
4.8742	466.018679096	19.0
4.8845	466.28088675	16.0
4.8947	466.540050524	15.0
4.905	466.801253027	15.0
4.9152	467.059423319	13.0
4.9254	467.317100712	17.0
4.9357	467.576805142	12.0
4.9459	467.833494751	26.0
4.9562	468.092203626	24.0
4.9664	468.347909237	16.0
4.9766	468.603126656	17.0
4.9869	468.86035176	12.0
4.9971	469.114590824	20.0
5.0074	469.370829877	18.0
5.0176	469.624094337	15.0
5.0278	469.876875266	17.0
5.0381	470.131644713	16.0
5.0483	470.383456627	13.0
5.0586	470.637249437	18.0
5.0688	470.888096051	18.0
5.079	471.13846375	19.0
5.0893	471.390800984	18.0
5.0995	471.640208919	18.0
5.1098	471.891578839	22.0
5.12	472.140030691	26.0
5.1302	472.388008199	17.0
5.1405	472.637936438	15.0
5.1507	472.884963345	15.0
5.161	473.133933506	20.0
5.1712	473.380013456	20.0
5.1814	473.625623592	20.0
5.1917	473.873165835	14.0
5.2019	474.117834445	20.0
5.2122	474.364427757	18.0
5.2224	474.60815845	21.0
5.2326	474.851423813	19.0
5.2429	475.096602839	7.0
5.2531	475.338935665	14.0
5.2634	475.583174819	19.0
5.2736	475.824578683	25.0
5.2838	476.065521659	21.0
5.2941	476.308360029	13.0
5.3043	476.54837937	16.0
5.3146	476.79028684	18.0
5.3248	477.029386088	27.0
5.335	477.268028848	20.0
5.3453	477.508548908	21.0
5.3555	477.746276851	20.0
5.3658	477.985874897	10.0
5.376	478.222691531	16.0
5.3862	478.459056034	14.0
5.3965	478.697279915	17.0
5.4067	478.932738336	11.0
5.417	479.170049006	15.0
5.4272	479.404604816	18.0
5.4374	479.638712814	15.0
5.4477	479.874662437	13.0
5.4579	480.107873001	20.0
5.4682	480.342918132	18.0
5.4784	480.575234703	9.0
5.4886	480.807107736	15.0
5.4989	481.040804814	17.0
5.5091	481.271788981	21.0
5.5194	481.504590201	15.0
5.5296	481.73468891	19.0
5.5398	481.964348315	13.0
5.5501	482.195814351	16.0
5.5603	482.424593377	16.0
5.5706	482.655172108	19.0
5.5808	482.883074128	14.0
5.591	483.110541039	18.0
5.6013	483.339797333	12.0
5.6115	483.566392268	19.0
5.6218	483.794769728	17.0
5.632	484.020496031	17.0
5.6422	484.245791377	17.0
5.6525	484.472859025	20.0
5.6627	484.697290721	11.0
5.673	484.923487925	18.0
5.6832	485.147059281	20.0
5.6934	485.370203795	11.0
5.7037	485.595103691	15.0
5.7139	485.8173928	20.0
5.7242	486.041430561	13.0
5.7344	486.262867544	9.0
5.7446	486.483881759	9.0
5.7549	486.706634598	14.0
5.7651	486.926801574	15.0
5.7754	487.148700508	16.0
5.7856	487.368023493	20.0
5.7958	487.586927747	17.0
5.8061	487.807554026	9.0
5.8163	488.025619129	20.0
5.8266	488.245399656	15.0
5.8368	488.462628825	17.0
5.847	488.679443261	14.0
5.8573	488.897963282	13.0
5.8675	489.113946577	7.0
5.8778	489.33162892	17.0
5.888	489.546784263	13.0
5.8982	489.761528831	16.0
5.9085	489.977962701	19.0
5.9187	490.191884065	18.0
5.929	490.407488254	13.0
5.9392	490.620589568	21.0
5.9494	490.833284029	14.0
5.9597	491.047651666	17.0
5.9699	491.259530781	20.0
5.9802	491.473076657	15.0
5.9904	491.684143552	13.0
6.0006	491.894807478	14.0
6.0109	492.107128605	16.0
6.0211	492.316984969	9.0
6.0314	492.528492182	15.0
6.0416	492.737544079	17.0
6.0518	492.946196855	11.0
6.0621	493.156491012	12.0
6.0723	493.364343935	10.0
6.0826	493.573831947	16.0
6.0928	493.780888084	14.0
6.103	493.987548909	8.0
6.1133	494.195835446	10.0
6.1235	494.401704055	25.0
6.1338	494.609192143	12.0
6.144	494.814271572	20.0
6.1542	495.018959463	19.0
6.1645	495.225257546	19.0
6.1747	495.429160784	17.0
6.185	495.634668041	9.0
6.1952	495.837789633	11.0
6.2054	496.040523426	20.0
6.2157	496.244852038	14.0
6.2259	496.446808669	9.0
6.2362	496.650354004	14.0
6.2464	496.851536451	17.0
6.2566	497.052334801	12.0
6.2669	497.254712744	14.0
6.2771	497.45474135	20.0
6.2874	497.656343495	8.0
6.2976	497.855605309	14.0
6.3078	498.054486692	21.0
6.3181	498.254932589	7.0
6.3283	498.453051577	19.0
6.3386	498.652729082	10.0
6.3488	498.850088598	13.0
6.359	499.047071316	14.0
6.3693	499.245603612	19.0
6.3795	499.441831213	11.0
6.3898	499.639602452	10.0
6.4	499.835077832	19.0
6.4102	500.03018001	11.0
6.4205	500.226816973	11.0
6.4307	500.421171243	15.0
6.441	500.617054415	13.0
6.4512	500.810663645	17.0
6.4614	501.003903237	18.0
6.4717	501.198662961	8.0
6.4819	501.391161785	17.0
6.4922	501.585174914	17.0
6.5024	501.776935811	9.0
6.5126	501.968330597	18.0
6.5229	502.161231004	13.0
6.5331	502.351892095	18.0
6.5434	502.544053035	14.0
6.5536	502.733983243	13.0
6.5638	502.923550837	16.0
6.5741	503.114609677	13.0
6.5843	503.303450579	11.0
6.5946	503.493777012	13.0
6.6048	503.681894009	18.0
6.615	503.869651853	11.0
6.6253	504.058886707	13.0
6.6355	504.245924798	13.0
6.6458	504.434434236	15.0
6.656	504.620755332	18.0
6.6662	504.806720705	10.0
6.6765	504.994148986	5.0
6.6867	505.179401476	11.0
6.697	505.366111267	10.0
6.7072	505.550653607	9.0
6.7174	505.734843619	10.0
6.7277	505.920482574	10.0
6.7379	506.10396651	11.0
6.7482	506.288893834	12.0
6.7584	506.4716744	13.0
6.7686	506.654106001	10.0
6.7789	506.837972713	11.0
6.7891	507.019704978	8.0
6.7994	507.202866852	8.0
6.8096	507.383902462	8.0
6.8198	507.564592439	13.0
6.8301	507.746703826	8.0
6.8403	507.926701144	9.0
6.8506	508.108114422	4.0
6.8608	508.287421735	10.0
6.871	508.466386715	7.0
6.8813	508.646759535	7.0
6.8915	508.825038468	8.0
6.9018	509.004719844	14.0
6.912	509.18231536	7.0
6.9222	509.359571811	10.0
6.9325	509.538222661	9.0
6.9427	509.714799615	8.0
6.953	509.892765622	7.0
6.9632	510.068665683	10.0
6.9734	510.244229915	6.0
6.9837	510.421175236	8.0
6.9939	510.596066458	12.0
7.0042	510.772333473	7.0
7.0144	510.946554265	9.0
7.0246	511.120442434	4.0
7.0349	511.295698506	6.0
7.0451	511.46892009	4.0
7.0554	511.643504333	9.0
7.0656	511.816061887	13.0
7.0758	511.988289994	6.0
7.0861	512.161872945	3.0
7.0963	512.33344083	7.0
7.1066	512.506358366	4.0
7.1168	512.67726856	7.0
7.127	512.847852453	6.0
7.1373	513.019778256	6.0
7.1475	513.18970823	5.0
7.1578	513.36097497	2.0
7.168	513.530253532	4.0
7.1782	513.699208908	5.0
7.1885	513.869493383	5.0
7.1987	514.037801082	4.0
7.209	514.207432786	5.0
7.2192	514.375095292	1.0
7.2294	514.542437698	6.0
7.2397	514.711096514	2.0
7.2499	514.877797427	4.0
7.2602	515.045809703	6.0
7.2704	515.211871582	5.0
7.2806	515.377616416	7.0
7.2909	515.544665093	5.0
7.3011	515.709774558	6.0
7.3114	515.876182868	4.0
7.3216	516.0406594	4.0
7.3318	516.204821914	7.0
7.3421	516.370275823	2.0
7.3523	516.533809034	2.0
7.3626	516.69862869	7.0
7.3728	516.86153501	5.0
7.383	517.02413031	3.0
7.3933	517.188004676	2.0
7.4035	517.349976681	1.0
7.4138	517.513222849	2.0
7.424	517.674573948	4.0
7.4342	517.835616995	4.0
7.4445	517.997926899	2.0
7.4547	518.158352601	4.0
7.465	518.320040303	2.0
7.4752	518.479851028	2.0
7.4854	518.639356642	2.0
7.4957	518.800117017	1.0
7.5059	518.95901118	1.0
7.5162	519.119155294	3.0
7.5264	519.27744035	2.0
7.5366	519.435423208	3.0
7.5469	519.594648849	2.0
7.5571	519.752026093	2.0
7.5674	519.910641356	3.0
7.5776	520.067415308	3.0
7.5878	520.223889947	0.0
7.5981	520.381595505	2.0
7.6083	520.537470312	1.0
7.6186	520.694571319	1.0
7.6288	520.849848593	1.0
7.639	521.004829413	0.0
7.6493	521.161029399	6.0
7.6595	521.315416113	1.0
7.6698	521.47101732	2.0
7.68	521.624812205	0.0
7.6902	521.778313465	3.0
7.7005	521.933022253	2.0
7.7107	522.08593508	0.0
7.721	522.240050805	2.0
7.7312	522.392377453	1.0
7.7414	522.544413279	0.0
7.7517	522.697645105	0.0
7.7619	522.849098115	1.0
7.7722	523.00174254	2.0
7.7824	523.152614968	2.0
7.7926	523.30319935	3.0
7.8029	523.454968315	1.0
7.8131	523.604975445	3.0
7.8234	523.756162616	2.0
7.8336	523.905594706	2.0
7.8438	524.054741501	2.0
7.8541	524.205061569	0.0
7.8643	524.353636622	1.0
7.8746	524.503380451	2.0
7.8848	524.651385955	0.0
7.895	524.799108886	1.0
7.9053	524.94799389	0.0
7.9155	525.095150539	2.0
7.9258	525.243464805	0.0
7.936	525.390057341	0.0
7.9462	525.536370002	0.0
7.9565	525.683833643	2.0
7.9667	525.829585427	0.0
7.977	525.976483778	3.0
7.9872	526.121676835	1.0
7.9974	526.266592691	0.0
8.0077	526.412648536	1.0
8.0179	526.557008869	1.0
