TL-DOS Lehrstuhlversuch
detector=R1407301
job_number=2015-10-22-008
irradiation_dose [mSv]=3.0

[BEGIN DATA]
time [sec] 	 temperature [K] 	 photoncount 
0.0	118.123469864	0.0
0.0102	120.036189321	1.0
0.0205	121.959017078	0.0
0.0307	123.854654918	4.0
0.041	125.760310786	3.0
0.0512	127.639019558	0.0
0.0614	129.509361498	2.0
0.0717	131.389587781	1.0
0.0819	133.243226558	5.0
0.0922	135.106661406	3.0
0.1024	136.943746189	0.0
0.1126	138.772649512	1.0
0.1229	140.611218184	4.0
0.1331	142.423788413	2.0
0.1434	144.245937676	2.0
0.1536	146.042320675	1.0
0.1638	147.83070348	1.0
0.1741	149.628537492	3.0
0.1843	151.400949074	0.0
0.1946	153.182727459	2.0
0.2048	154.939310449	2.0
0.215	156.688070493	0.0
0.2253	158.446072348	2.0
0.2355	160.179215022	0.0
0.2458	161.921516972	0.0
0.256	163.639181747	0.0
0.2662	165.349196899	0.0
0.2765	167.068249103	0.0
0.2867	168.762992898	0.0
0.297	170.466693038	0.0
0.3072	172.146301856	0.0
0.3174	173.818430534	0.0
0.3277	175.499396041	0.0
0.3379	177.156591707	1.0
0.3482	178.822545286	0.0
0.3584	180.464941301	0.0
0.3686	182.100022903	0.0
0.3789	183.743745549	0.0
0.3891	185.36422499	0.0
0.3994	186.993268306	0.0
0.4096	188.599275991	0.0
0.4198	190.198131318	0.0
0.4301	191.805436242	0.0
0.4403	193.390012929	0.0
0.4506	194.982963753	0.0
0.4608	196.553389315	0.0
0.471	198.116820984	0.0
0.4813	199.688515044	0.0
0.4915	201.237984425	0.0
0.5018	202.795642409	0.0
0.512	204.331274193	0.0
0.5222	205.860067037	0.0
0.5325	207.396939214	0.0
0.5427	208.912079114	0.0
0.553	210.435226194	0.0
0.5632	211.936835077	2.0
0.5734	213.431756543	0.0
0.5837	214.934578338	0.0
0.5939	216.416149348	0.0
0.6042	217.905550134	0.0
0.6144	219.373889916	0.0
0.6246	220.835690444	0.0
0.6349	222.305216265	1.0
0.6451	223.753962126	0.0
0.6554	225.210364289	0.0
0.6656	226.646172068	1.0
0.6758	228.075585475	0.0
0.6861	229.512553015	0.0
0.6963	230.929200989	0.0
0.7066	232.353335635	0.0
0.7168	233.757332178	0.0
0.727	235.15507602	0.0
0.7373	236.560206629	0.0
0.7475	237.945467865	1.0
0.7578	239.3380499	0.0
0.768	240.710940006	0.0
0.7782	242.077715943	0.0
0.7885	243.451714989	0.0
0.7987	244.80628488	0.0
0.809	246.168013373	0.0
0.8192	247.510486224	0.0
0.8294	248.84698037	0.0
0.8397	250.190537592	0.0
0.8499	251.515096124	1.0
0.8602	252.846654655	1.0
0.8704	254.159384165	1.0
0.8806	255.466267432	0.0
0.8909	256.780057288	0.0
0.9011	258.075269382	0.0
0.9114	259.377326386	1.0
0.9216	260.660971538	0.0
0.9318	261.938899973	0.0
0.9421	263.223581978	0.0
0.9523	264.490097824	0.0
0.9626	265.763306925	0.0
0.9728	267.018512101	0.0
0.983	268.268127218	0.0
0.9933	269.524346275	0.0
1.0035	270.762801655	0.0
1.0138	272.007801999	0.0
1.024	273.235197304	0.0
1.0342	274.457126403	0.0
1.0445	275.685513126	1.0
1.0547	276.896529739	2.0
1.065	278.113946306	1.0
1.0752	279.314147887	1.0
1.0854	280.509004368	1.0
1.0957	281.710175402	0.0
1.1059	282.89436117	1.0
1.1162	284.084805098	2.0
1.1264	285.258415448	0.0
1.1366	286.426799123	1.0
1.1469	287.601357447	0.0
1.1571	288.759306826	2.0
1.1674	289.92337571	0.0
1.1776	291.070983976	1.0
1.1878	292.213481366	1.0
1.1981	293.362016603	1.0
1.2083	294.494310875	0.0
1.2186	295.632589072	0.0
1.2288	296.754771346	0.0
1.239	297.871955979	4.0
1.2493	298.995044685	1.0
1.2595	300.102252257	1.0
1.2698	301.215311176	0.0
1.28	302.312630786	3.0
1.2902	303.405063482	3.0
1.3005	304.503269443	1.0
1.3107	305.585946126	2.0
1.321	306.674344515	0.0
1.3312	307.747352311	1.0
1.3414	308.815581465	1.0
1.3517	309.889455974	3.0
1.3619	310.948145265	2.0
1.3722	312.012429495	0.0
1.3824	313.061664119	0.0
1.3926	314.106225976	7.0
1.4029	315.156308111	5.0
1.4131	316.191541466	3.0
1.4234	317.232245801	5.0
1.4336	318.258233965	3.0
1.4438	319.279652888	5.0
1.4541	320.306469784	5.0
1.4643	321.318766886	4.0
1.4746	322.336413753	4.0
1.4848	323.339670496	4.0
1.495	324.338459232	4.0
1.5053	325.342526346	2.0
1.5155	326.33239536	9.0
1.5258	327.327495614	6.0
1.536	328.308524564	5.0
1.5462	329.2851845	1.0
1.5565	330.267005867	5.0
1.5667	331.234943703	7.0
1.577	332.207996876	9.0
1.5872	333.167290505	10.0
1.5974	334.122311918	13.0
1.6077	335.082380408	8.0
1.6179	336.028872965	14.0
1.6282	336.980367525	5.0
1.6384	337.918407393	9.0
1.6486	338.852269698	11.0
1.6589	339.791067259	11.0
1.6691	340.716589671	16.0
1.6794	341.647003263	13.0
1.6896	342.56426026	16.0
1.6998	343.477432251	17.0
1.7101	344.395430154	18.0
1.7203	345.300447027	17.0
1.7306	346.210246714	27.0
1.7408	347.107181298	20.0
1.751	348.000121382	21.0
1.7613	348.897780457	28.0
1.7715	349.782746104	25.0
1.7818	350.6723886	26.0
1.792	351.549451026	32.0
1.8022	352.422607454	24.0
1.8125	353.300378321	26.0
1.8227	354.165736991	32.0
1.833	355.03566889	36.0
1.8432	355.89329944	45.0
1.8534	356.747110531	42.0
1.8637	357.605433825	49.0
1.8739	358.451619923	46.0
1.8842	359.302277927	50.0
1.8944	360.140907126	59.0
1.9046	360.975801488	54.0
1.9149	361.815108083	58.0
1.9251	362.642546388	68.0
1.9354	363.474357523	86.0
1.9456	364.294406358	91.0
1.9558	365.110803104	66.0
1.9661	365.931514326	74.0
1.9763	366.740620209	85.0
1.9866	367.554002038	103.0
1.9968	368.355882169	102.0
2.007	369.154191125	118.0
2.0173	369.956718968	100.0
2.0275	370.747898595	100.0
2.0378	371.543259431	109.0
2.048	372.327373397	109.0
2.0582	373.10799531	133.0
2.0685	373.892742637	151.0
2.0787	374.666393175	139.0
2.089	375.444132285	142.0
2.0992	376.210873707	181.0
2.1094	376.974200444	173.0
2.1197	377.741561194	165.0
2.1299	378.498071012	180.0
2.1402	379.258578817	175.0
2.1504	380.008332594	182.0
2.1606	380.754747342	200.0
2.1709	381.505106726	239.0
2.1811	382.244855587	235.0
2.1914	382.988513857	248.0
2.2016	383.721656361	227.0
2.2118	384.451533815	271.0
2.2221	385.185268509	281.0
2.2323	385.908627763	285.0
2.2426	386.63580981	306.0
2.2528	387.352709076	319.0
2.263	388.066415629	312.0
2.2733	388.783893964	324.0
2.2835	389.491226732	378.0
2.2938	390.202297599	345.0
2.304	390.903313504	374.0
2.3142	391.601207434	381.0
2.3245	392.30278958	392.0
2.3347	392.99445094	398.0
2.345	393.689767579	386.0
2.3552	394.37525203	450.0
2.3654	395.057683676	475.0
2.3757	395.743721822	440.0
2.3859	396.420058985	479.0
2.3962	397.09997044	458.0
2.4064	397.770267547	485.0
2.4166	398.437579485	475.0
2.4269	399.108418019	484.0
2.4371	399.769770501	507.0
2.4474	400.434618085	487.0
2.4576	401.090064333	506.0
2.4678	401.74259155	546.0
2.4781	402.398567229	494.0
2.4883	403.045267026	503.0
2.4986	403.695384488	517.0
2.5088	404.336308907	499.0
2.519	404.974378967	521.0
2.5293	405.615821087	529.0
2.5395	406.248192838	532.0
2.5498	406.883906534	491.0
2.56	407.510630864	500.0
2.5702	408.134564076	512.0
2.5805	408.761794638	455.0
2.5907	409.38015579	446.0
2.601	410.001784844	479.0
2.6112	410.614623697	430.0
2.6214	411.224733272	405.0
2.6317	411.83806714	436.0
2.6419	412.442728107	409.0
2.6522	413.050584574	358.0
2.6624	413.649845592	395.0
2.6726	414.2464378	390.0
2.6829	414.846182866	362.0
2.6931	415.437447184	378.0
2.7034	416.031836204	365.0
2.7136	416.617820212	331.0
2.7238	417.20119454	318.0
2.7341	417.787651873	291.0
2.7443	418.365816353	309.0
2.7546	418.947036305	293.0
2.7648	419.520037465	271.0
2.775	420.090486763	274.0
2.7853	420.66395076	300.0
2.7955	421.229305638	292.0
2.8058	421.797648292	254.0
2.816	422.357954246	249.0
2.8262	422.915764877	277.0
2.8365	423.476523413	267.0
2.8467	424.029352494	260.0
2.857	424.585103154	273.0
2.8672	425.132995173	264.0
2.8774	425.678447154	245.0
2.8877	426.226781728	273.0
2.8979	426.767362528	273.0
2.9082	427.310800179	262.0
2.9184	427.846553301	285.0
2.9286	428.379920446	295.0
2.9389	428.916106318	307.0
2.9491	429.444710207	284.0
2.9594	429.97610765	331.0
2.9696	430.499990821	338.0
2.9798	431.021540877	341.0
2.9901	431.545847209	334.0
3.0003	432.062739542	315.0
3.0106	432.582363536	340.0
3.0208	433.094639742	362.0
3.031	433.604634524	370.0
3.0413	434.117324516	349.0
3.0515	434.62276477	384.0
3.0618	435.130876164	379.0
3.072	435.631802564	428.0
3.0822	436.130498087	393.0
3.0925	436.631829105	391.0
3.1027	437.126071009	427.0
3.113	437.622924871	424.0
3.1232	438.112752927	417.0
3.1334	438.600399533	458.0
3.1437	439.090623244	446.0
3.1539	439.573914903	473.0
3.1642	440.059760652	441.0
3.1744	440.538736255	493.0
3.1846	441.01557874	506.0
3.1949	441.494941233	509.0
3.2051	441.967525257	501.0
3.2154	442.442606784	471.0
3.2256	442.910970378	523.0
3.2358	443.377248114	520.0
3.2461	443.845990025	498.0
3.2563	444.308103649	482.0
3.2666	444.772659442	438.0
3.2768	445.230646142	530.0
3.287	445.686593198	530.0
3.2973	446.144949834	508.0
3.3075	446.596825036	538.0
3.3178	447.0510883	499.0
3.328	447.498928013	544.0
3.3382	447.944773272	526.0
3.3485	448.392974724	518.0
3.3587	448.834838343	532.0
3.369	449.279037115	515.0
3.3792	449.716954654	496.0
3.3894	450.152921927	544.0
3.3997	450.591193191	505.0
3.4099	451.02326704	479.0
3.4202	451.457624305	493.0
3.4304	451.885839502	484.0
3.4406	452.312147643	522.0
3.4509	452.740708727	462.0
3.4611	453.163209706	502.0
3.4714	453.587943509	486.0
3.4816	454.006671326	480.0
3.4918	454.423534337	507.0
3.5021	454.842600378	490.0
3.5123	455.255740578	446.0
3.5226	455.671064133	481.0
3.5328	456.080514769	519.0
3.543	456.488141915	468.0
3.5533	456.897923281	440.0
3.5635	457.301910097	491.0
3.5738	457.708031894	428.0
3.584	458.10841089	442.0
3.5942	458.507006797	443.0
3.6045	458.907709196	443.0
3.6147	459.302745427	410.0
3.625	459.699869336	419.0
3.6352	460.091377681	429.0
3.6454	460.481142442	436.0
3.6557	460.872967023	440.0
3.6659	461.259250975	435.0
3.6762	461.647576352	419.0
3.6864	462.030410579	386.0
3.6966	462.411539854	417.0
3.7069	462.794683312	450.0
3.7171	463.172408897	424.0
3.7274	463.552130678	435.0
3.7376	463.926482969	415.0
3.7478	464.299168082	433.0
3.7581	464.673822753	385.0
3.7683	465.043179587	428.0
3.7786	465.41448839	412.0
3.7888	465.780546668	404.0
3.799	466.144974704	412.0
3.8093	466.511328663	416.0
3.8195	466.87250216	422.0
3.8298	467.23558438	425.0
3.84	467.593532404	446.0
3.8502	467.949886305	398.0
3.8605	468.308123458	396.0
3.8707	468.661294927	438.0
3.881	469.016332829	426.0
3.8912	469.366350287	428.0
3.9014	469.71480894	420.0
3.9117	470.065109121	469.0
3.9219	470.410455851	446.0
3.9322	470.757627662	409.0
3.9424	471.09989026	435.0
3.9526	471.44062859	379.0
3.9629	471.783167648	405.0
3.9731	472.120863001	411.0
3.9834	472.460343	399.0
3.9936	472.795022551	404.0
4.0038	473.128211607	384.0
4.0141	473.463161493	409.0
4.0243	473.793374991	409.0
4.0346	474.125333594	395.0
4.0448	474.452598107	398.0
4.055	474.778405147	444.0
4.0653	475.105934005	401.0
4.0755	475.428831412	425.0
4.0858	475.753435261	393.0
4.096	476.07344902	410.0
4.1062	476.392037598	379.0
4.1165	476.712309845	385.0
4.1267	477.028053255	410.0
4.137	477.345465299	403.0
4.1472	477.65838895	425.0
4.1574	477.969918994	428.0
4.1677	478.283095406	357.0
4.1779	478.591843319	396.0
4.1882	478.902222897	404.0
4.1984	479.208213525	380.0
4.2086	479.512841423	400.0
4.2189	479.819079212	400.0
4.2291	480.120986619	417.0
4.2394	480.42448954	377.0
4.2496	480.72370075	387.0
4.2598	481.021579423	404.0
4.2701	481.321032319	411.0
4.2803	481.616250775	390.0
4.2906	481.913029395	378.0
4.3008	482.205611391	360.0
4.311	482.496890372	351.0
4.3213	482.789708698	389.0
4.3315	483.078386401	363.0
4.3418	483.368589702	403.0
4.352	483.654689357	369.0
4.3622	483.939514867	357.0
4.3725	484.225845617	350.0
4.3827	484.508127481	348.0
4.393	484.791901143	366.0
4.4032	485.071662078	340.0
4.4134	485.350177097	378.0
4.4237	485.630164007	341.0
4.4339	485.906191737	351.0
4.4442	486.183678213	385.0
4.4544	486.457240866	321.0
4.4646	486.729585208	333.0
4.4749	487.003368829	364.0
4.4851	487.273280989	355.0
4.4954	487.544619575	344.0
4.5056	487.812121273	372.0
4.5158	488.078431653	320.0
4.5261	488.346149424	357.0
4.5363	488.610081508	345.0
4.5466	488.875408414	331.0
4.5568	489.136983443	330.0
4.567	489.397393546	334.0
4.5773	489.659179859	340.0
4.5875	489.91726436	323.0
4.5978	490.17671278	324.0
4.608	490.432492446	345.0
4.6182	490.687132998	367.0
4.6285	490.943119269	357.0
4.6387	491.195485743	331.0
4.649	491.449185918	339.0
4.6592	491.699298623	347.0
4.6694	491.948297451	366.0
4.6797	492.198612183	323.0
4.6899	492.445387317	359.0
4.7002	492.693466603	326.0
4.7104	492.938037903	328.0
4.7206	493.181520003	326.0
4.7309	493.426288852	339.0
4.7411	493.667596526	352.0
4.7514	493.910179458	290.0
4.7616	494.149332124	303.0
4.7718	494.387419723	311.0
4.7821	494.626765563	334.0
4.7923	494.862726912	329.0
4.8026	495.099935264	353.0
4.8128	495.333789351	348.0
4.823	495.566601968	354.0
4.8333	495.800644948	315.0
4.8435	496.031378422	332.0
4.8538	496.263331273	305.0
4.864	496.492004173	372.0
4.8742	496.719658678	327.0
4.8845	496.948516287	311.0
4.8947	497.174137715	321.0
4.905	497.400951502	321.0
4.9152	497.624558008	330.0
4.9254	497.847168683	321.0
4.9357	498.070955806	344.0
4.9459	498.291578447	352.0
4.9562	498.51336703	323.0
4.9664	498.732019392	337.0
4.9766	498.949697985	348.0
4.9869	499.168526962	350.0
4.9971	499.384261568	341.0
5.0074	499.601136284	322.0
5.0176	499.814944263	346.0
5.0278	500.027800049	342.0
5.0381	500.24178073	311.0
5.0483	500.452735599	321.0
5.0586	500.664805317	311.0
5.0688	500.873876245	350.0
5.079	501.082016075	295.0
5.0893	501.291255877	324.0
5.0995	501.497536907	295.0
5.1098	501.704908085	314.0
5.12	501.909346913	297.0
5.1302	502.112875273	294.0
5.1405	502.317479235	323.0
5.1507	502.519189976	319.0
5.161	502.721966714	305.0
5.1712	502.92187607	313.0
5.1814	503.120895129	278.0
5.1917	503.32096596	293.0
5.2019	503.518207671	312.0
5.2122	503.716491761	293.0
5.2224	503.911971998	289.0
5.2326	504.106581663	320.0
5.2429	504.302219797	278.0
5.2531	504.495091493	266.0
5.2634	504.688982473	266.0
5.2736	504.88013172	256.0
5.2838	505.070429684	252.0
5.2941	505.261733331	277.0
5.3043	505.450331832	250.0
5.3146	505.639927033	261.0
5.3248	505.826841248	268.0
5.335	506.012923039	269.0
5.3453	506.199988231	253.0
5.3555	506.384408212	234.0
5.3658	506.569802811	234.0
5.376	506.752575822	216.0
5.3862	506.934534853	214.0
5.3965	507.117455497	224.0
5.4067	507.297789535	225.0
5.417	507.479076599	216.0
5.4272	507.657800158	179.0
5.4374	507.83572777	228.0
5.4477	508.014595691	193.0
5.4579	508.190934314	202.0
5.4682	508.368204847	172.0
5.4784	508.542968671	177.0
5.4886	508.716954184	164.0
5.4989	508.891859172	158.0
5.5091	509.064290901	172.0
5.5194	509.237633893	155.0
5.5296	509.408525713	177.0
5.5398	509.578656466	155.0
5.5501	509.749686323	162.0
5.5603	509.918297716	139.0
5.5706	510.087800184	137.0
5.5808	510.254905787	153.0
5.591	510.421267185	153.0
5.6013	510.588507766	132.0
5.6115	510.753383467	127.0
5.6218	510.9191305	125.0
5.632	511.082533771	121.0
5.6422	511.245209327	138.0
5.6525	511.408744586	125.0
5.6627	511.569967361	112.0
5.673	511.732042162	104.0
5.6832	511.891825131	104.0
5.6934	512.050896505	103.0
5.7037	512.210808537	101.0
5.7139	512.368459319	95.0
5.7242	512.52694325	79.0
5.7344	512.683186125	76.0
5.7446	512.838733172	85.0
5.7549	512.995102251	86.0
5.7651	513.149260179	72.0
5.7754	513.304232797	74.0
5.7856	513.457014012	65.0
5.7958	513.609114815	67.0
5.8061	513.762019437	74.0
5.8163	513.912761898	65.0
5.8266	514.064301	47.0
5.8368	514.213697249	62.0
5.847	514.362428162	47.0
5.8573	514.511945085	59.0
5.8675	514.659347751	56.0
5.8778	514.807529407	53.0
5.888	514.953615687	59.0
5.8982	515.099051372	52.0
5.9085	515.245255653	56.0
5.9187	515.389392518	51.0
5.929	515.534291116	40.0
5.9392	515.677140761	37.0
5.9494	515.819354226	42.0
5.9597	515.962319257	36.0
5.9699	516.103262679	29.0
5.9802	516.244950956	32.0
5.9904	516.384635677	27.0
6.0006	516.523698311	38.0
6.0109	516.663495861	30.0
6.0211	516.801316592	29.0
6.0314	516.939865674	18.0
6.0416	517.076455591	28.0
6.0518	517.212437205	29.0
6.0621	517.349137451	25.0
6.0723	517.483904676	29.0
6.0826	517.619384115	33.0
6.0928	517.752947795	35.0
6.103	517.88591665	18.0
6.1133	518.019588215	24.0
6.1235	518.151369585	17.0
6.1338	518.283847392	14.0
6.144	518.414451884	19.0
6.1542	518.544474728	29.0
6.1645	518.675184715	17.0
6.1747	518.804046385	19.0
6.185	518.933589061	15.0
6.1952	519.061299927	12.0
6.2054	519.188442033	15.0
6.2157	519.316256057	12.0
6.2259	519.442262715	14.0
6.2362	519.56893529	16.0
6.2464	519.693816641	10.0
6.2566	519.818141832	8.0
6.2669	519.943124055	19.0
6.2771	520.066338955	11.0
6.2874	520.190205019	16.0
6.2976	520.312319544	13.0
6.3078	520.433890231	10.0
6.3181	520.556103393	8.0
6.3283	520.676588389	10.0
6.3386	520.797710121	7.0
6.3488	520.917119121	12.0
6.359	521.035996333	11.0
6.3693	521.155501784	6.0
6.3795	521.273317358	5.0
6.3898	521.391755561	11.0
6.4	521.508518978	13.0
6.4102	521.62476239	8.0
6.4205	521.741620121	4.0
6.4307	521.856825416	7.0
6.441	521.972639546	11.0
6.4512	522.086815995	10.0
6.4614	522.20048396	5.0
6.4717	522.314752634	4.0
6.4819	522.427405482	6.0
6.4922	522.540653676	2.0
6.5024	522.652300473	9.0
6.5126	522.763450051	6.0
6.5229	522.875187031	5.0
6.5331	522.985343983	7.0
6.5434	523.096083091	7.0
6.5536	523.205256283	4.0
6.5638	523.313943271	5.0
6.5741	523.423204646	6.0
6.5843	523.530921002	5.0
6.5946	523.639206614	3.0
6.6048	523.745961004	6.0
6.615	523.852239963	5.0
6.6253	523.959080583	8.0
6.6355	524.064410413	7.0
6.6458	524.170296889	0.0
6.656	524.274686067	4.0
6.6662	524.378610349	1.0
6.6765	524.483083846	2.0
6.6867	524.586080028	3.0
6.697	524.689620521	4.0
6.7072	524.791696891	3.0
6.7174	524.893318663	4.0
6.7277	524.995477484	4.0
6.7379	525.096191719	2.0
6.7482	525.197438207	2.0
6.7584	525.29725301	7.0
6.7686	525.396623287	9.0
6.7789	525.496518714	4.0
6.7891	525.595001562	2.0
6.7994	525.694004869	2.0
6.8096	525.791608211	9.0
6.8198	525.888776877	2.0
6.8301	525.986459057	7.0
6.8403	526.082759954	5.0
6.8506	526.17956978	4.0
6.8608	526.275010658	6.0
6.871	526.37002649	4.0
6.8813	526.46554446	1.0
6.8915	526.559711749	7.0
6.9018	526.654376691	3.0
6.912	526.747703016	2.0
6.9222	526.840613712	2.0
6.9325	526.93401542	6.0
6.9427	527.026096373	3.0
6.953	527.118663953	3.0
6.9632	527.209922574	5.0
6.9734	527.300774774	2.0
6.9837	527.392107107	2.0
6.9939	527.482147948	2.0
7.0042	527.572664635	2.0
7.0144	527.661901363	5.0
7.0246	527.750740674	2.0
7.0349	527.840049482	4.0
7.0451	527.928095411	0.0
7.0554	528.016606643	1.0
7.0656	528.103866274	0.0
7.0758	528.190737294	2.0
7.0861	528.278067408	4.0
7.0963	528.364162623	0.0
7.1066	528.450712832	3.0
7.1168	528.536039171	1.0
7.127	528.620985508	3.0
7.1373	528.706380768	4.0
7.1475	528.790568489	1.0
7.1578	528.875201123	5.0
7.168	528.958637002	2.0
7.1782	529.041701299	3.0
7.1885	529.125204572	4.0
7.1987	529.207527061	4.0
7.209	529.290284605	0.0
7.2192	529.371871909	1.0
7.2294	529.453095863	3.0
7.2397	529.534749069	4.0
7.2499	529.61524765	3.0
7.2602	529.696171648	2.0
7.2704	529.775951333	2.0
7.2806	529.85537572	4.0
7.2909	529.935219846	2.0
7.3011	530.01393493	2.0
7.3114	530.093066005	2.0
7.3216	530.171078121	9.0
7.3318	530.248742809	0.0
7.3421	530.326817938	3.0
7.3523	530.403789039	2.0
7.3626	530.481166915	2.0
7.3728	530.557450623	3.0
7.383	530.6333946	4.0
7.3933	530.709739925	4.0
7.4035	530.785005682	2.0
7.4138	530.860669202	0.0
7.424	530.935262796	5.0
7.4342	531.009524186	3.0
7.4445	531.084178032	2.0
7.4547	531.157776228	0.0
7.465	531.231763375	0.0
7.4752	531.304704299	2.0
7.4854	531.377320381	2.0
7.4957	531.450320224	2.0
7.5059	531.522287805	3.0
7.5162	531.594635719	3.0
7.5264	531.665960591	1.0
7.5366	531.736967818	2.0
7.5469	531.808350302	3.0
7.5571	531.878723396	2.0
7.5674	531.949468396	5.0
7.5776	532.01921302	0.0
7.5878	532.088647036	2.0
7.5981	532.158447996	3.0
7.6083	532.227261929	5.0
7.6186	532.296439528	1.0
7.6288	532.364638916	2.0
7.639	532.432534577	1.0
7.6493	532.500789052	3.0
7.6595	532.568078369	0.0
7.6698	532.635723295	4.0
7.68	532.702411681	1.0
7.6902	532.768803071	2.0
7.7005	532.835545325	2.0
7.7107	532.901343804	2.0
7.721	532.967490013	4.0
7.7312	533.032700876	0.0
7.7414	533.097621322	3.0
7.7517	533.162884859	1.0
7.7619	533.22722553	2.0
7.7722	533.291906228	1.0
7.7824	533.355672303	5.0
7.7926	533.419154396	4.0
7.8029	533.482971977	4.0
7.8131	533.54588714	0.0
7.8234	533.609134796	2.0
7.8336	533.671488093	0.0
7.8438	533.733563699	3.0
7.8541	533.795967361	2.0
