TL-DOS Lehrstuhlversuch
detector=R1407202
job_number=2015-10-27-004
irradiation_dose [mSv]=0.4

[BEGIN DATA]
time [sec] 	 temperature [K] 	 photoncount 
0.0	230.112582775	0.0
0.0102	231.038591984	0.0
0.0205	231.971196084	0.0
0.0307	232.892292779	1.0
0.041	233.81994938	0.0
0.0512	234.736159623	2.0
0.0614	235.649948225	1.0
0.0717	236.570244685	2.0
0.0819	237.479185604	1.0
0.0922	238.394599857	2.0
0.1024	239.298718811	0.0
0.1126	240.200448082	2.0
0.1229	241.108599326	1.0
0.1331	242.00554489	3.0
0.1434	242.908878358	2.0
0.1536	243.801065592	0.0
0.1638	244.69089468	1.0
0.1741	245.587060989	2.0
0.1843	246.472169501	1.0
0.1946	247.363581615	0.0
0.2048	248.243994593	0.0
0.215	249.122080545	0.0
0.2253	250.006420087	4.0
0.2355	250.87984776	0.0
0.2458	251.759495848	0.0
0.256	252.628289955	0.0
0.2662	253.494787747	0.0
0.2765	254.367456599	0.0
0.2867	255.229357588	1.0
0.297	256.097396899	0.0
0.3072	256.954725471	0.0
0.3174	257.809788032	0.0
0.3277	258.670940213	0.0
0.3379	259.521466635	0.0
0.3482	260.378050372	0.0
0.3584	261.22406472	0.0
0.3686	262.067842961	0.0
0.3789	262.917630458	0.0
0.3891	263.756932425	0.0
0.3994	264.602211767	0.0
0.4096	265.437061205	0.0
0.4198	266.269704048	0.0
0.4301	267.10827684	0.0
0.4403	267.936502481	0.0
0.4506	268.770626614	0.0
0.4608	269.594458487	0.0
0.471	270.416112885	0.0
0.4813	271.243618975	0.0
0.4915	272.060914465	0.0
0.5018	272.884030605	0.0
0.512	273.696990312	0.0
0.5222	274.50780128	0.0
0.5325	275.324386716	0.0
0.5427	276.130896301	0.0
0.553	276.943149721	0.0
0.5632	277.745380743	0.0
0.5734	278.545491383	0.0
0.5837	279.351300284	0.0
0.5939	280.147166308	0.0
0.6042	280.948700363	1.0
0.6144	281.740344287	0.0
0.6246	282.529895812	0.0
0.6349	283.325070398	0.0
0.6451	284.110433323	0.0
0.6554	284.901389478	0.0
0.6656	285.682586023	0.0
0.6758	286.461717783	0.0
0.6861	287.246398395	0.0
0.6963	288.021396831	0.0
0.7066	288.801914684	0.0
0.7168	289.572801725	0.0
0.727	290.341651229	0.0
0.7373	291.115976357	0.0
0.7475	291.880747086	0.0
0.7578	292.650964391	0.0
0.768	293.411677982	0.0
0.7782	294.170380927	0.0
0.7885	294.934487233	0.0
0.7987	295.68916523	0.0
0.809	296.449217924	0.0
0.8192	297.199892326	0.0
0.8294	297.948582616	0.0
0.8397	298.702604959	0.0
0.8499	299.447323419	0.0
0.8602	300.197345646	0.0
0.8704	300.938113346	1.0
0.8806	301.676923118	1.0
0.8909	302.420994577	1.0
0.9011	303.155884936	0.0
0.9114	303.896009068	0.0
0.9216	304.627000806	0.0
0.9318	305.356060455	0.0
0.9421	306.090312352	1.0
0.9523	306.815504312	0.0
0.9626	307.545860975	0.0
0.9728	308.267205765	0.0
0.983	308.986643964	0.0
0.9933	309.711205888	0.0
1.0035	310.42682744	0.0
1.0138	311.147545536	0.0
1.024	311.85937069	0.0
1.0342	312.569314413	0.0
1.0445	313.284314244	0.0
1.0547	313.990491689	0.0
1.065	314.701698419	1.0
1.0752	315.404129567	0.0
1.0854	316.104704114	1.0
1.0957	316.810268043	1.0
1.1059	317.507126016	0.0
1.1162	318.208946902	0.0
1.1264	318.902108018	1.0
1.1366	319.593437035	0.0
1.1469	320.289689588	1.0
1.1571	320.977351079	0.0
1.1674	321.669909986	0.0
1.1776	322.353923407	1.0
1.1878	323.036128908	1.0
1.1981	323.723192968	0.0
1.2083	324.401779343	0.0
1.2186	325.085198503	0.0
1.2288	325.760184952	0.0
1.239	326.43338734	0.0
1.2493	327.111384169	0.0
1.2595	327.781015193	1.0
1.2698	328.455415223	1.0
1.28	329.121493829	0.0
1.2902	329.785811919	1.0
1.3005	330.454861177	1.0
1.3107	331.115655034	0.0
1.321	331.781154961	0.0
1.3312	332.438443283	0.0
1.3414	333.093994321	1.0
1.3517	333.75421409	0.0
1.3619	334.406287406	1.0
1.3722	335.063004684	1.0
1.3824	335.711618726	0.0
1.3926	336.358518413	0.0
1.4029	337.010025216	1.0
1.4131	337.653493075	1.0
1.4234	338.301543611	0.0
1.4336	338.941597849	0.0
1.4438	339.579960356	0.0
1.4541	340.222869179	0.0
1.4643	340.857845149	1.0
1.4746	341.497343317	0.0
1.4848	342.128950716	0.0
1.495	342.758888708	0.0
1.5053	343.39331302	0.0
1.5155	344.019909168	1.0
1.5258	344.650967835	1.0
1.536	345.274239868	2.0
1.5462	345.895864525	1.0
1.5565	346.521916296	0.0
1.5667	347.140243212	0.0
1.577	347.762973754	3.0
1.5872	348.378020423	2.0
1.5974	348.991441457	1.0
1.6077	349.609231179	2.0
1.6179	350.219397993	2.0
1.6282	350.833910317	0.0
1.6384	351.440840173	1.0
1.6486	352.046165848	3.0
1.6589	352.655802557	2.0
1.6691	353.257916957	1.0
1.6794	353.86431952	2.0
1.6896	354.46323968	1.0
1.6998	355.060576831	0.0
1.7101	355.662168122	3.0
1.7203	356.256336377	0.0
1.7306	356.854736204	1.0
1.7408	357.445752374	2.0
1.751	358.035206426	4.0
1.7613	358.628858475	2.0
1.7715	359.215185451	1.0
1.7818	359.805688154	3.0
1.792	360.388904643	3.0
1.8022	360.970579629	3.0
1.8125	361.556397212	5.0
1.8227	362.13498639	3.0
1.833	362.717696189	3.0
1.8432	363.29321593	5.0
1.8534	363.867214511	5.0
1.8637	364.445301019	5.0
1.8739	365.016254516	2.0
1.8842	365.591274254	5.0
1.8944	366.159198821	5.0
1.9046	366.725622303	6.0
1.9149	367.296079764	3.0
1.9251	367.859498349	4.0
1.9354	368.426929511	2.0
1.9456	368.987359139	2.0
1.9558	369.546307492	7.0
1.9661	370.109236587	6.0
1.9763	370.665219697	6.0
1.9866	371.225162432	5.0
1.9968	371.778196032	10.0
2.007	372.329767905	6.0
2.0173	372.885267985	6.0
2.0275	373.433913749	5.0
2.0378	373.986466881	3.0
2.048	374.532202058	7.0
2.0582	375.076494799	6.0
2.0685	375.624663907	4.0
2.0787	376.166069155	17.0
2.089	376.711330205	13.0
2.0992	377.249863278	11.0
2.1094	377.78697295	8.0
2.1197	378.327907833	7.0
2.1299	378.862168118	7.0
2.1402	379.400233321	14.0
2.1504	379.931659336	18.0
2.1606	380.461680735	13.0
2.1709	380.995476863	13.0
2.1811	381.522686479	14.0
2.1914	382.053650798	22.0
2.2016	382.578063548	16.0
2.2118	383.101090218	13.0
2.2221	383.627841802	13.0
2.2323	384.148093796	14.0
2.2426	384.672050943	22.0
2.2528	385.189542981	22.0
2.263	385.705667233	22.0
2.2733	386.225467239	23.0
2.2835	386.738853432	19.0
2.2938	387.255895881	30.0
2.304	387.766558541	30.0
2.3142	388.275871465	30.0
2.3245	388.788811636	26.0
2.3347	389.295422636	30.0
2.345	389.80564164	21.0
2.3552	390.30956505	23.0
2.3654	390.812156537	34.0
2.3757	391.318327401	34.0
2.3859	391.818252621	32.0
2.3962	392.321738229	30.0
2.4064	392.819011327	39.0
2.4166	393.31497008	25.0
2.4269	393.814460972	29.0
2.4371	394.307788645	44.0
2.4474	394.804629719	41.0
2.4576	395.29534027	43.0
2.4678	395.784753821	45.0
2.4781	396.277652897	44.0
2.4883	396.764470091	49.0
2.4986	397.254754319	52.0
2.5088	397.73898893	53.0
2.519	398.221943656	43.0
2.5293	398.70833791	40.0
2.5395	399.188730543	44.0
2.5498	399.672544457	43.0
2.56	400.15038859	67.0
2.5702	400.62696973	37.0
2.5805	401.106945005	66.0
2.5907	401.580997864	66.0
2.601	402.058426853	68.0
2.6112	402.529964844	61.0
2.6214	403.00025651	58.0
2.6317	403.473897518	44.0
2.6419	403.941694269	62.0
2.6522	404.412822595	47.0
2.6624	404.878137666	73.0
2.6726	405.342222861	44.0
2.6829	405.809613196	64.0
2.6931	406.271236402	75.0
2.7034	406.736147214	69.0
2.7136	407.195321491	54.0
2.7238	407.653282121	69.0
2.7341	408.114504275	63.0
2.7443	408.570035407	43.0
2.7546	409.028810759	56.0
2.7648	409.481925282	51.0
2.775	409.933842174	54.0
2.7853	410.388977547	41.0
2.7955	410.838497003	52.0
2.8058	411.291217866	65.0
2.816	411.738352605	65.0
2.8262	412.184305519	42.0
2.8365	412.633434439	47.0
2.8467	413.077021557	42.0
2.857	413.523767831	39.0
2.8672	413.965001702	44.0
2.8774	414.405069345	33.0
2.8877	414.84827108	38.0
2.8979	415.286004148	44.0
2.9082	415.726854681	29.0
2.9184	416.162265558	34.0
2.9286	416.596525598	49.0
2.9389	417.03387837	43.0
2.9491	417.465834644	33.0
2.9594	417.900867242	32.0
2.9696	418.330531973	40.0
2.9798	418.759061053	20.0
2.9901	419.19064205	32.0
3.0003	419.616897768	34.0
3.0106	420.046189211	27.0
3.0208	420.470183626	30.0
3.031	420.893057379	33.0
3.0413	421.318942772	37.0
3.0515	421.739573163	30.0
3.0618	422.163199218	36.0
3.072	422.58159815	35.0
3.0822	422.998891209	42.0
3.0925	423.419156163	25.0
3.1027	423.834235466	31.0
3.113	424.252270899	36.0
3.1232	424.665148191	36.0
3.1334	425.076934205	40.0
3.1437	425.491652894	43.0
3.1539	425.901254367	38.0
3.1642	426.313772957	29.0
3.1744	426.72120148	41.0
3.1846	427.127553125	51.0
3.1949	427.536798743	41.0
3.2051	427.940994678	28.0
3.2154	428.348069232	53.0
3.2256	428.750120892	34.0
3.2358	429.151109887	44.0
3.2461	429.554954662	48.0
3.2563	429.953816395	58.0
3.2666	430.355518759	54.0
3.2768	430.752264515	47.0
3.287	431.147961631	46.0
3.2973	431.546476839	56.0
3.3075	431.940074766	42.0
3.3178	432.336475836	54.0
3.328	432.727985712	43.0
3.3382	433.118460786	40.0
3.3485	433.511716761	57.0
3.3587	433.900120349	64.0
3.369	434.291290087	58.0
3.3792	434.67763318	55.0
3.3894	435.062955127	54.0
3.3997	435.451021277	67.0
3.4099	435.834299076	59.0
3.4202	436.22030652	57.0
3.4304	436.601551017	70.0
3.4406	436.981787844	58.0
3.4509	437.364732658	55.0
3.4611	437.742952314	51.0
3.4714	438.123865591	58.0
3.4816	438.500078778	68.0
3.4918	438.875297594	73.0
3.5021	439.253188658	59.0
3.5123	439.626416924	66.0
3.5226	440.002303262	74.0
3.5328	440.373551538	51.0
3.543	440.743818565	76.0
3.5533	441.116722575	52.0
3.5635	441.485025322	70.0
3.5738	441.855951063	61.0
3.584	442.222299949	59.0
3.5942	442.587680537	62.0
3.6045	442.955663307	67.0
3.6147	443.319105537	53.0
3.625	443.685136146	74.0
3.6352	444.046650301	67.0
3.6454	444.407208936	55.0
3.6557	444.770335412	80.0
3.6659	445.12898127	55.0
3.6762	445.490181347	66.0
3.6864	445.846924576	66.0
3.6966	446.202724894	66.0
3.7069	446.561059165	64.0
3.7171	446.914971949	51.0
3.7274	447.271405244	54.0
3.7376	447.623440507	63.0
3.7478	447.974545304	69.0
3.7581	448.328150614	41.0
3.7683	448.677392786	63.0
3.7786	449.029122206	54.0
3.7888	449.376511636	62.0
3.799	449.722982879	56.0
3.8093	450.071921635	56.0
3.8195	450.416554835	57.0
3.8298	450.763642457	49.0
3.84	451.106447365	56.0
3.8502	451.448346203	50.0
3.8605	451.79267999	56.0
3.8707	452.132765042	63.0
3.881	452.475272126	50.0
3.8912	452.813553014	54.0
3.9014	453.150939789	44.0
3.9117	453.49072938	50.0
3.9219	453.826326306	38.0
3.9322	454.1643133	50.0
3.9424	454.498129871	63.0
3.9526	454.83106413	44.0
3.9629	455.166369495	46.0
3.9731	455.497537525	66.0
3.9834	455.831064081	51.0
3.9936	456.160475253	44.0
4.0038	456.489015756	48.0
4.0141	456.819896072	52.0
4.0243	457.146693655	56.0
4.0346	457.475818639	56.0
4.0448	457.800882548	48.0
4.055	458.12508728	54.0
4.0653	458.451600945	55.0
4.0755	458.774085758	44.0
4.0858	459.098867257	55.0
4.096	459.419641276	37.0
4.1062	459.739567455	64.0
4.1165	460.061772098	56.0
4.1267	460.380001057	47.0
4.137	460.700496392	66.0
4.1472	461.017037134	43.0
4.1574	461.332741225	51.0
4.1677	461.650693711	43.0
4.1779	461.96472298	54.0
4.1882	462.280988716	55.0
4.1984	462.593352049	56.0
4.2086	462.904889771	47.0
4.2189	463.218646216	57.0
4.2291	463.52853122	48.0
4.2394	463.840623175	45.0
4.2496	464.148864227	54.0
4.2598	464.456290565	36.0
4.2701	464.765906345	49.0
4.2803	465.071701775	45.0
4.2906	465.379675032	35.0
4.3008	465.683848205	55.0
4.311	465.987217417	53.0
4.3213	466.292747176	34.0
4.3315	466.594507002	75.0
4.3418	466.898415915	53.0
4.352	467.198574894	33.0
4.3622	467.497940521	57.0
4.3725	467.799438183	46.0
4.3827	468.097215665	42.0
4.393	468.39711387	44.0
4.4032	468.693311631	45.0
4.4134	468.988726509	53.0
4.4237	469.286245286	49.0
4.4339	469.580092977	47.0
4.4442	469.876033406	49.0
4.4544	470.168322224	49.0
4.4646	470.459838492	44.0
4.4749	470.753430893	59.0
4.4851	471.043400657	54.0
4.4954	471.335435539	51.0
4.5056	471.623867002	51.0
4.5158	471.91153611	52.0
4.5261	472.201253951	44.0
4.5363	472.487396964	45.0
4.5466	472.775577842	40.0
4.5568	473.060202855	39.0
4.567	473.344075574	48.0
4.5773	473.629969989	46.0
4.5875	473.912336753	37.0
4.5978	474.196714488	50.0
4.608	474.477583285	35.0
4.6182	474.757709716	36.0
4.6285	475.039831163	54.0
4.6387	475.318471513	35.0
4.649	475.599096296	44.0
4.6592	475.876258448	40.0
4.6694	476.152688032	64.0
4.6797	476.431086303	43.0
4.6899	476.706049417	39.0
4.7002	476.982970775	42.0
4.7104	477.2564752	48.0
4.7206	477.529256723	41.0
4.7309	477.803980953	40.0
4.7411	478.07531536	45.0
4.7514	478.348582168	39.0
4.7616	478.618477136	34.0
4.7718	478.887658742	41.0
4.7821	479.158757418	41.0
4.7923	479.426511006	51.0
4.8026	479.696171493	51.0
4.8128	479.962504639	52.0
4.823	480.228133837	47.0
4.8333	480.495654805	47.0
4.8435	480.759874831	43.0
4.8538	481.02597659	43.0
4.864	481.288794918	38.0
4.8742	481.55091859	34.0
4.8845	481.814909065	46.0
4.8947	482.075642161	42.0
4.905	482.338232157	45.0
4.9152	482.597582054	43.0
4.9254	482.856246462	44.0
4.9357	483.116753037	35.0
4.9459	483.37404522	31.0
4.9562	483.633169798	44.0
4.9664	483.889097037	50.0
4.9766	484.144347832	37.0
4.9869	484.401416484	54.0
4.9971	484.655313165	48.0
5.0074	484.911018058	44.0
5.0176	485.163567807	49.0
5.0278	485.415450041	40.0
5.0381	485.669126139	40.0
5.0483	485.919672128	48.0
5.0586	486.172002466	33.0
5.0688	486.421219299	34.0
5.079	486.669777426	32.0
5.0893	486.920105744	36.0
5.0995	487.16734526	34.0
5.1098	487.416345577	30.0
5.12	487.662273478	39.0
5.1302	487.907551366	36.0
5.1405	488.154576084	34.0
5.1507	488.398552763	41.0
5.161	488.644267006	41.0
5.1712	488.88694938	30.0
5.1814	489.128990319	47.0
5.1917	489.372755035	29.0
5.2019	489.613511937	42.0
5.2122	489.855983472	35.0
5.2224	490.09546315	48.0
5.2326	490.334309858	41.0
5.2429	490.574857594	37.0
5.2531	490.812437211	33.0
5.2634	491.051708833	33.0
5.2736	491.288028081	29.0
5.2838	491.523722712	33.0
5.2941	491.761095923	43.0
5.3043	491.995540186	48.0
5.3146	492.231654123	33.0
5.3248	492.46485465	41.0
5.335	492.697438804	27.0
5.3453	492.931679384	38.0
5.3555	493.16302967	41.0
5.3658	493.396027595	39.0
5.376	493.626150559	42.0
5.3862	493.855665283	35.0
5.3965	494.086814575	43.0
5.4067	494.315111715	44.0
5.417	494.545034751	36.0
5.4272	494.772120766	27.0
5.4374	494.998606568	39.0
5.4477	495.226705367	46.0
5.4579	495.451989654	37.0
5.4682	495.67887838	42.0
5.4784	495.902967525	39.0
5.4886	496.126464379	51.0
5.4989	496.351552942	41.0
5.5091	496.573864136	47.0
5.5194	496.797758596	32.0
5.5296	497.018890422	41.0
5.5398	497.239437772	38.0
5.5501	497.461555826	38.0
5.5603	497.680933165	49.0
5.5706	497.901872874	32.0
5.5808	498.120086408	38.0
5.591	498.33772318	45.0
5.6013	498.556909926	35.0
5.6115	498.773392127	36.0
5.6218	498.99141608	39.0
5.632	499.206749835	47.0
5.6422	499.421514439	44.0
5.6525	499.637808563	48.0
5.6627	499.851433833	41.0
5.673	500.066580509	46.0
5.6832	500.27907249	45.0
5.6934	500.491002831	38.0
5.7037	500.704442507	35.0
5.7139	500.91524855	40.0
5.7242	501.12755592	26.0
5.7344	501.337243629	35.0
5.7446	501.546377111	44.0
5.7549	501.757000009	31.0
5.7651	501.96502403	34.0
5.7754	502.174529565	39.0
5.7856	502.381450011	38.0
5.7958	502.587823544	32.0
5.8061	502.795666837	31.0
5.8163	503.000945551	30.0
5.8266	503.207686227	32.0
5.8368	503.41187593	25.0
5.847	503.615525937	33.0
5.8573	503.820626308	28.0
5.8675	504.023195945	35.0
5.8778	504.22720825	35.0
5.888	504.428703247	26.0
5.8982	504.629665671	34.0
5.9085	504.832059318	23.0
5.9187	505.03195563	33.0
5.929	505.233275571	27.0
5.9392	505.432111424	30.0
5.9494	505.630421734	36.0
5.9597	505.830144378	41.0
5.9699	506.027402644	22.0
5.9802	506.226065752	28.0
5.9904	506.422277555	28.0
6.0006	506.61797075	25.0
6.0109	506.815057641	38.0
6.0211	507.009712676	24.0
6.0314	507.205754013	27.0
6.0416	507.399376396	21.0
6.0518	507.592487014	22.0
6.0621	507.786972935	26.0
6.0723	507.979059094	30.0
6.0826	508.172513261	20.0
6.0928	508.363580396	23.0
6.103	508.55414252	21.0
6.1133	508.746061797	32.0
6.1235	508.935612982	17.0
6.1338	509.12651412	20.0
6.144	509.315059729	21.0
6.1542	509.503106992	26.0
6.1645	509.692493497	24.0
6.1747	509.879543162	23.0
6.185	510.067924965	23.0
6.1952	510.253982325	31.0
6.2054	510.439547915	14.0
6.2157	510.626435073	20.0
6.2259	510.811016231	14.0
6.2362	510.996911946	19.0
6.2464	511.180513894	17.0
6.2566	511.363630562	18.0
6.2669	511.548051358	17.0
6.2771	511.730196586	11.0
6.2874	511.913639023	14.0
6.2976	512.094817963	13.0
6.3078	512.275518028	22.0
6.3181	512.45750501	21.0
6.3283	512.637246454	20.0
6.3386	512.818267989	18.0
6.3488	512.997055898	17.0
6.359	513.175371252	16.0
6.3693	513.35495654	13.0
6.3795	513.532325924	8.0
6.3898	513.710958505	17.0
6.4	513.887386938	23.0
6.4102	514.063349051	15.0
6.4205	514.240564339	13.0
6.4307	514.415592968	14.0
6.441	514.591868122	15.0
6.4512	514.765968217	13.0
6.4614	514.939608147	15.0
6.4717	515.114484713	14.0
6.4819	515.287203476	9.0
6.4922	515.461152315	10.0
6.5024	515.632954799	11.0
6.5126	515.804303191	16.0
6.5229	515.976871898	7.0
6.5331	516.14731128	4.0
6.5434	516.318964505	7.0
6.5536	516.4884997	11.0
6.5638	516.657586795	6.0
6.5741	516.827878101	7.0
6.5843	516.996068183	9.0
6.5946	517.165456088	12.0
6.6048	517.332753915	12.0
6.615	517.499609557	6.0
6.6253	517.667653517	7.0
6.6355	517.833623983	5.0
6.6458	518.000776464	6.0
6.656	518.16586645	6.0
6.6662	518.330520086	10.0
6.6765	518.496346359	9.0
6.6867	518.660126501	3.0
6.697	518.82507306	8.0
6.7072	518.987984342	10.0
6.7174	519.150465032	9.0
6.7277	519.314102885	3.0
6.7379	519.475721609	4.0
6.7482	519.638491356	5.0
6.7584	519.799252687	5.0
6.7686	519.959589109	2.0
6.7789	520.121067421	7.0
6.7891	520.280553252	2.0
6.7994	520.441174916	9.0
6.8096	520.599814669	4.0
6.8198	520.75803512	7.0
6.8301	520.917382392	3.0
6.8403	521.074763477	6.0
6.8506	521.233265406	5.0
6.8608	521.389811579	3.0
6.871	521.545943983	2.0
6.8813	521.703188338	0.0
6.8915	521.858492455	6.0
6.9018	522.014902623	3.0
6.912	522.169382845	7.0
6.9222	522.32345476	4.0
6.9325	522.47862395	1.0
6.9427	522.631878508	2.0
6.953	522.78622452	3.0
6.9632	522.938666056	3.0
6.9734	523.090704673	6.0
6.9837	523.243826085	1.0
6.9939	523.395058132	2.0
7.0042	523.547367229	8.0
7.0144	523.697796984	7.0
7.0246	523.847829137	2.0
7.0349	523.998929795	2.0
7.0451	524.148166022	2.0
7.0554	524.298465085	5.0
7.0656	524.446909608	1.0
7.0758	524.594961777	4.0
7.0861	524.744068349	1.0
7.0963	524.891335095	5.0
7.1066	525.039650652	1.0
7.1168	525.186136142	2.0
7.127	525.332234456	0.0
7.1373	525.479373259	1.0
7.1475	525.624696516	2.0
7.1578	525.771054742	2.0
7.168	525.915607053	1.0
7.1782	526.059777297	1.0
7.1885	526.204974299	4.0
7.1987	526.348379715	1.0
7.209	526.492806441	2.0
7.2192	526.635451086	1.0
7.2294	526.777718706	4.0
7.2397	526.920999533	1.0
7.2499	527.062512417	3.0
7.2602	527.205033134	1.0
7.2704	527.345795288	1.0
7.2806	527.486185392	1.0
7.2909	527.627575332	3.0
7.3011	527.767220662	0.0
7.3114	527.907860523	3.0
7.3216	528.046765029	0.0
7.3318	528.185302395	0.0
7.3421	528.324826402	3.0
7.3523	528.462628823	1.0
7.3626	528.60141265	1.0
7.3728	528.738484023	0.0
7.383	528.875193103	3.0
7.3933	529.012875802	0.0
7.4035	529.148859634	1.0
7.4138	529.285811922	1.0
7.424	529.421074355	0.0
7.4342	529.555979275	0.0
7.4445	529.691844967	1.0
7.4547	529.826034211	2.0
7.465	529.96117913	0.0
7.4752	530.094656496	0.0
7.4854	530.227781066	0.0
7.4957	530.361853729	1.0
7.5059	530.494272069	0.0
7.5162	530.627633471	2.0
7.5264	530.759349326	1.0
7.5366	530.890717043	0.0
7.5469	531.023020339	1.0
7.5571	531.153691145	0.0
7.5674	531.285292568	1.0
7.5776	531.41527016	0.0
7.5878	531.544904208	1.0
7.5981	531.675461488	0.0
7.6083	531.804407823	0.0
7.6186	531.934272492	2.0
7.6288	532.062534761	0.0
7.639	532.19045802	1.0
7.6493	532.319292327	0.0
7.6595	532.446536948	0.0
7.6698	532.574687784	4.0
7.68	532.701257367	0.0
7.6902	532.827492414	0.0
7.7005	532.954626486	2.0
7.7107	533.08019185	2.0
7.721	533.206651472	1.0
7.7312	533.331550707	1.0
7.7414	533.456119821	2.0
7.7517	533.581576096	1.0
7.7619	533.705484366	1.0
7.7722	533.830275091	1.0
7.7824	533.953526023	1.0
7.7926	534.076451189	0.0
7.8029	534.20025181	2.0
7.8131	534.322524853	1.0
7.8234	534.445668707	0.0
7.8336	534.567293088	1.0
7.8438	534.688596002	1.0
7.8541	534.810762817	1.0
7.8643	534.931422215	1.0
7.8746	535.05294093	1.0
7.8848	535.172960226	1.0
7.895	535.292662298	2.0
7.9053	535.413216869	0.0
7.9155	535.532283917	0.0
7.9258	535.652198941	1.0
7.936	535.770634334	0.0
7.9462	535.888756689	1.0
7.9565	536.007720293	1.0
7.9667	536.125216005	0.0
7.977	536.243548503	1.0
7.9872	536.360420895	0.0
7.9974	536.476984382	0.0
8.0077	536.594378015	2.0
8.0179	536.710323128	1.0
