TL-DOS Lehrstuhlversuch
detector=R1407304
job_number=2015-10-30-001
irradiation_dose [mSv]=0.4

[BEGIN DATA]
time [sec] 	 temperature [K] 	 photoncount 
0.0	176.714018706	0.0
0.0102	177.969923293	0.0
0.0205	179.2340045	0.0
0.0307	180.481730399	1.0
0.041	181.737579671	2.0
0.0512	182.977180144	1.0
0.0614	184.212757457	0.0
0.0717	185.456379049	1.0
0.0819	186.683910049	1.0
0.0922	187.919432943	0.0
0.1024	189.13897003	1.0
0.1126	190.354549073	4.0
0.1229	191.578042197	1.0
0.1331	192.78570516	2.0
0.1434	194.001230665	2.0
0.1536	195.2010291	1.0
0.1638	196.396933553	2.0
0.1741	197.600623994	6.0
0.1843	198.788740492	0.0
0.1946	199.984592274	1.0
0.2048	201.164971533	3.0
0.215	202.341519837	1.0
0.2253	203.525728109	1.0
0.2355	204.694614509	0.0
0.2458	205.871110993	1.0
0.256	207.032385384	0.0
0.2662	208.189890825	0.0
0.2765	209.354932254	0.0
0.2867	210.504899801	0.0
0.297	211.662354261	0.0
0.3072	212.804833002	0.0
0.3174	213.943603795	0.0
0.3277	215.089788605	1.0
0.3379	216.221143507	0.0
0.3482	217.359864145	1.0
0.3584	218.483851451	0.0
0.3686	219.604190824	0.0
0.3789	220.731824214	0.0
0.3891	221.844867725	0.0
0.3994	222.965157754	0.0
0.4096	224.070952916	0.0
0.4198	225.173159187	0.0
0.4301	226.28254142	0.0
0.4403	227.377569916	0.0
0.4506	228.479727642	1.0
0.4608	229.567625106	0.0
0.471	230.651991767	1.0
0.4813	231.743418244	0.0
0.4915	232.820723304	1.0
0.5018	233.905042206	0.0
0.512	234.975331653	0.0
0.5222	236.042147444	0.0
0.5325	237.115908785	0.0
0.5427	238.17577727	0.0
0.553	239.242546075	0.0
0.5632	240.295512497	0.0
0.5734	241.345061486	0.0
0.5837	242.401443608	0.0
0.5939	243.444157736	0.0
0.6042	244.493660498	0.0
0.6144	245.529584275	0.0
0.6246	246.56214593	0.0
0.6349	247.601430123	0.0
0.6451	248.627267542	0.0
0.6554	249.65978372	1.0
0.6656	250.678940693	0.0
0.6758	251.694789961	0.0
0.6861	252.71725296	0.0
0.6963	253.726486827	0.0
0.7066	254.742291354	0.0
0.7168	255.744952899	1.0
0.727	256.744360277	0.0
0.7373	257.750274339	0.0
0.7475	258.743173388	0.0
0.7578	259.742536748	0.0
0.768	260.728969851	0.0
0.7782	261.712201456	0.0
0.7885	262.701834433	0.0
0.7987	263.678663048	0.0
0.809	264.661851348	0.0
0.8192	265.632318671	0.0
0.8294	266.599636314	0.0
0.8397	267.57325172	0.0
0.8499	268.534270008	0.0
0.8602	269.501545047	0.0
0.8704	270.456305003	0.0
0.8806	271.407966257	0.0
0.8909	272.365823343	0.0
0.9011	273.311287199	0.0
0.9114	274.262906539	0.0
0.9216	275.202213357	0.0
0.9318	276.138471627	0.0
0.9421	277.080825446	0.0
0.9523	278.010986626	0.0
0.9626	278.947203659	1.0
0.9728	279.871307454	0.0
0.983	280.792412042	0.0
0.9933	281.719513522	1.0
1.0035	282.634619703	0.0
1.0138	283.555683723	0.0
1.024	284.46483056	0.0
1.0342	285.371026735	0.0
1.0445	286.283122739	1.0
1.0547	287.183417593	0.0
1.065	288.089573856	0.0
1.0752	288.98400582	1.0
1.0854	289.87553488	0.0
1.0957	290.772868277	0.0
1.1059	291.658591531	0.0
1.1162	292.550081324	0.0
1.1264	293.430036581	0.0
1.1366	294.307135918	0.0
1.1469	295.189945647	0.0
1.1571	296.061333147	0.0
1.1674	296.938393853	0.0
1.1776	297.804106713	0.0
1.1878	298.667009877	0.0
1.1981	299.535531009	0.0
1.2083	300.392814785	2.0
1.2186	301.255679943	0.0
1.2288	302.107380925	0.0
1.239	302.956317687	0.0
1.2493	303.810781488	0.0
1.2595	304.654189813	0.0
1.2698	305.503089184	0.0
1.28	306.341005075	0.0
1.2902	307.176201486	0.0
1.3005	308.016835478	0.0
1.3107	308.846592932	0.0
1.321	309.681752558	3.0
1.3312	310.506106474	0.0
1.3414	311.327784927	0.0
1.3517	312.154812951	0.0
1.3619	312.971140478	0.0
1.3722	313.792782741	1.0
1.3824	314.603794189	0.0
1.3926	315.412173476	2.0
1.4029	316.225815751	0.0
1.4131	317.028930719	0.0
1.4234	317.837274402	1.0
1.4336	318.635159334	0.0
1.4438	319.430454707	0.0
1.4541	320.230927885	0.0
1.4643	321.021044145	0.0
1.4746	321.81630449	0.0
1.4848	322.601275364	0.0
1.495	323.383698592	1.0
1.5053	324.171215819	1.0
1.5155	324.948543759	0.0
1.5258	325.730932526	0.0
1.536	326.50319836	0.0
1.5462	327.272957782	0.0
1.5565	328.047728757	2.0
1.5667	328.81247536	0.0
1.577	329.58220088	0.0
1.5872	330.34196731	1.0
1.5974	331.099267895	1.0
1.6077	331.861498919	1.0
1.6179	332.61386782	0.0
1.6282	333.371135051	0.0
1.6384	334.118604384	1.0
1.6486	334.863647784	3.0
1.6589	335.61354182	2.0
1.6691	336.353733356	2.0
1.6794	337.098743941	1.0
1.6896	337.834115211	0.0
1.6998	338.567099811	0.0
1.7101	339.304856539	1.0
1.7203	340.033067805	3.0
1.7306	340.766020122	3.0
1.7408	341.48948914	2.0
1.751	342.210610117	1.0
1.7613	342.936425983	2.0
1.7715	343.652850885	1.0
1.7818	344.373940101	1.0
1.792	345.085699509	1.0
1.8022	345.79514888	1.0
1.8125	346.509217152	1.0
1.8227	347.214046455	1.0
1.833	347.92346458	4.0
1.8432	348.623703902	3.0
1.8534	349.321670577	3.0
1.8637	350.024181393	5.0
1.8739	350.717602777	4.0
1.8842	351.415538711	3.0
1.8944	352.104444404	3.0
1.9046	352.791114233	2.0
1.9149	353.482254656	2.0
1.9251	354.164452762	3.0
1.9354	354.851092349	2.0
1.9456	355.528847852	4.0
1.9558	356.20440368	3.0
1.9661	356.884357743	3.0
1.9763	357.555514224	5.0
1.9866	358.231040298	3.0
1.9968	358.897826081	12.0
2.007	359.562447792	5.0
2.0173	360.231396551	4.0
2.0275	360.891690119	3.0
2.0378	361.556282557	8.0
2.048	362.21227617	4.0
2.0582	362.866140736	5.0
2.0685	363.524262315	6.0
2.0787	364.173868791	6.0
2.089	364.827704559	4.0
2.0992	365.473080675	8.0
2.1094	366.116362205	7.0
2.1197	366.763831846	7.0
2.1299	367.402924205	5.0
2.1402	368.046177402	11.0
2.1504	368.681107871	15.0
2.1606	369.313977654	13.0
2.1709	369.950967763	8.0
2.1811	370.579716179	10.0
2.1914	371.212558089	17.0
2.2016	371.837211976	12.0
2.2118	372.459838531	8.0
2.2221	373.086518723	10.0
2.2323	373.705090617	7.0
2.2426	374.327689749	26.0
2.2528	374.942233386	20.0
2.263	375.554782503	19.0
2.2733	376.171319648	16.0
2.2835	376.77987973	16.0
2.2938	377.392401868	10.0
2.304	377.996998892	16.0
2.3142	378.599633679	19.0
2.3245	379.206191945	18.0
2.3347	379.80490226	23.0
2.345	380.407510504	21.0
2.3552	381.002321905	25.0
2.3654	381.595202828	28.0
2.3757	382.191943727	23.0
2.3859	382.780963698	21.0
2.3962	383.373818508	31.0
2.4064	383.959002669	33.0
2.4166	384.542287598	31.0
2.4269	385.129370028	34.0
2.4371	385.708856496	32.0
2.4474	386.292115735	38.0
2.4576	386.867828477	35.0
2.4678	387.441672726	32.0
2.4781	388.019253014	27.0
2.4883	388.589360281	38.0
2.4986	389.163179257	33.0
2.5088	389.729573878	26.0
2.519	390.29413025	44.0
2.5293	390.862362189	48.0
2.5395	391.423242063	45.0
2.5498	391.987773569	47.0
2.56	392.545000887	51.0
2.5702	393.100419708	48.0
2.5805	393.659454606	42.0
2.5907	394.211256435	49.0
2.601	394.766650792	49.0
2.6112	395.314859183	54.0
2.6214	395.861288348	53.0
2.6317	396.411275062	57.0
2.6419	396.954145777	50.0
2.6522	397.500550875	35.0
2.6624	398.039886313	71.0
2.6726	398.577471322	51.0
2.6829	399.118556301	55.0
2.6931	399.652640455	77.0
2.7034	400.190201787	69.0
2.7136	400.720807885	57.0
2.7238	401.249691884	52.0
2.7341	401.782019206	55.0
2.7443	402.307459013	64.0
2.7546	402.836319719	64.0
2.7648	403.358337763	63.0
2.775	403.878661583	69.0
2.7853	404.402372993	68.0
2.7955	404.919308365	55.0
2.8058	405.439609268	67.0
2.816	405.953178259	48.0
2.8262	406.465080448	58.0
2.8365	406.980315398	58.0
2.8467	407.488883983	50.0
2.857	408.000763626	52.0
2.8672	408.506020316	59.0
2.8774	409.009637181	51.0
2.8877	409.516532865	51.0
2.8979	410.016870082	52.0
2.9082	410.520464766	48.0
2.9184	411.017543693	62.0
2.9286	411.513009335	48.0
2.9389	412.011700728	57.0
2.9491	412.503939805	54.0
2.9594	412.999383625	47.0
2.9696	413.488417148	42.0
2.9798	413.975863499	34.0
2.9901	414.46648339	45.0
3.0003	414.950755397	42.0
3.0106	415.438180279	47.0
3.0208	415.919298616	48.0
3.031	416.39885547	51.0
3.0413	416.881534499	33.0
3.0515	417.357968387	39.0
3.0618	417.837504119	35.0
3.072	418.310835381	42.0
3.0822	418.782630432	31.0
3.0925	419.257497125	33.0
3.1027	419.726219757	34.0
3.113	420.197994029	31.0
3.1232	420.663664251	36.0
3.1334	421.127823127	37.0
3.1437	421.595003929	42.0
3.1539	422.056140115	27.0
3.1642	422.520278548	33.0
3.1744	422.978411728	36.0
3.1846	423.435058024	26.0
3.1949	423.894677334	28.0
3.2051	424.348349863	31.0
3.2154	424.804976046	36.0
3.2256	425.255694173	28.0
3.2358	425.704949482	20.0
3.2461	426.157129686	42.0
3.2563	426.60345936	36.0
3.2666	427.052694882	33.0
3.2768	427.496117972	30.0
3.287	427.938101919	31.0
3.2973	428.382963423	38.0
3.3075	428.822069087	38.0
3.3178	429.264033568	38.0
3.328	429.700279694	38.0
3.3382	430.13510997	47.0
3.3485	430.572771228	49.0
3.3587	431.004769807	36.0
3.369	431.439580932	45.0
3.3792	431.868766255	45.0
3.3894	432.296558645	38.0
3.3997	432.727136196	51.0
3.4099	433.152142721	36.0
3.4202	433.579916269	51.0
3.4304	434.002155071	49.0
3.4406	434.423023485	50.0
3.4509	434.846631981	56.0
3.4611	435.26475962	57.0
3.4714	435.685609498	58.0
3.4816	436.101014211	44.0
3.4918	436.515070716	54.0
3.5021	436.931822954	62.0
3.5123	437.343183045	67.0
3.5226	437.757221314	56.0
3.5328	438.16590255	65.0
3.543	438.5732574	57.0
3.5533	438.983264351	70.0
3.5635	439.387966429	50.0
3.5738	439.795303337	49.0
3.584	440.197369919	79.0
3.5942	440.598131582	63.0
3.6045	441.001502421	57.0
3.6147	441.399654248	77.0
3.625	441.80039826	58.0
3.6352	442.195957248	56.0
3.6454	442.590232437	69.0
3.6557	442.987074572	51.0
3.6659	443.378782166	76.0
3.6762	443.77303999	62.0
3.6864	444.162196711	66.0
3.6966	444.550090413	66.0
3.7069	444.940509513	55.0
3.7171	445.325877178	50.0
3.7274	445.713753795	62.0
3.7376	446.096611873	72.0
3.7478	446.478227373	74.0
3.7581	446.862327398	62.0
3.7683	447.241457747	62.0
3.7786	447.623056439	67.0
3.7888	447.99971782	60.0
3.799	448.375156734	62.0
3.8093	448.75303996	69.0
3.8195	449.126033945	61.0
3.8298	449.501456324	62.0
3.84	449.872021303	63.0
3.8502	450.241383601	60.0
3.8605	450.613150649	72.0
3.8707	450.980107591	64.0
3.881	451.349453622	62.0
3.8912	451.714020871	55.0
3.9014	452.077404906	62.0
3.9117	452.443154769	76.0
3.9219	452.804172379	47.0
3.9322	453.16754041	46.0
3.9424	453.526207005	56.0
3.9526	453.883709537	65.0
3.9629	454.243539605	67.0
3.9731	454.598714013	49.0
3.9834	454.9562008	59.0
3.9936	455.309062245	62.0
4.0038	455.660778469	50.0
4.0141	456.014784556	51.0
4.0243	456.364210337	43.0
4.0346	456.715911069	56.0
4.0448	457.063061324	46.0
4.055	457.409084892	55.0
4.0653	457.757361261	66.0
4.0755	458.101131459	56.0
4.0858	458.447139787	43.0
4.096	458.788671288	45.0
4.1062	459.129094338	49.0
4.1165	459.471733727	52.0
4.1267	459.809939879	43.0
4.137	460.150347936	46.0
4.1472	460.486351625	49.0
4.1574	460.821264804	36.0
4.1677	461.15835845	49.0
4.1779	461.491090612	42.0
4.1882	461.82598904	44.0
4.1984	462.156554387	50.0
4.2086	462.486046874	59.0
4.2189	462.817684537	51.0
4.2291	463.145031307	42.0
4.2394	463.474509282	59.0
4.2496	463.799724308	50.0
4.2598	464.12388384	27.0
4.2701	464.450153826	54.0
4.2803	464.772202369	41.0
4.2906	465.096347623	37.0
4.3008	465.416298925	33.0
4.311	465.735211817	51.0
4.3213	466.056201004	46.0
4.3315	466.373037074	56.0
4.3418	466.691935919	53.0
4.352	467.006708693	40.0
4.3622	467.320459863	54.0
4.3725	467.636253723	41.0
4.3827	467.947961686	48.0
4.393	468.261699037	56.0
4.4032	468.571377098	56.0
4.4134	468.880050091	71.0
4.4237	469.190732712	55.0
4.4339	469.497395568	54.0
4.4442	469.806054966	59.0
4.4544	470.110720775	44.0
4.4646	470.414397783	55.0
4.4749	470.720051893	55.0
4.4851	471.021751299	49.0
4.4954	471.325414931	33.0
4.5056	471.625149614	45.0
4.5158	471.923911498	59.0
4.5261	472.224618485	51.0
4.5363	472.521434776	43.0
4.5466	472.820183502	46.0
4.5568	473.115066869	50.0
4.567	473.408993183	48.0
4.5773	473.704833118	36.0
4.5875	473.996845329	53.0
4.5978	474.290758698	51.0
4.608	474.58086927	56.0
4.6182	474.87003828	43.0
4.6285	475.161089937	45.0
4.6387	475.448375824	62.0
4.649	475.737532098	38.0
4.6592	476.022947125	60.0
4.6694	476.307435829	42.0
4.6797	476.593776709	45.0
4.6899	476.876412769	61.0
4.7002	477.160888943	54.0
4.7104	477.441684424	53.0
4.7206	477.721568575	41.0
4.7309	478.003274923	44.0
4.7411	478.281336416	43.0
4.7514	478.561208239	50.0
4.7616	478.837458943	45.0
4.7718	479.112813066	44.0
4.7821	479.389959895	49.0
4.7923	479.663520861	49.0
4.8026	479.938862857	47.0
4.8128	480.210642342	58.0
4.823	480.481539759	55.0
4.8333	480.754200865	32.0
4.8435	481.023334146	57.0
4.8538	481.294219632	40.0
4.864	481.561600267	46.0
4.8742	481.82811311	47.0
4.8845	482.096361097	52.0
4.8947	482.361138358	52.0
4.905	482.627639464	54.0
4.9152	482.890692445	45.0
4.9254	483.152891681	37.0
4.9357	483.416797976	41.0
4.9459	483.677289721	56.0
4.9562	483.939477409	46.0
4.9664	484.198272782	36.0
4.9766	484.456228228	38.0
4.9869	484.715863104	55.0
4.9971	484.972138695	53.0
5.0074	485.230082779	47.0
5.0176	485.484689455	30.0
5.0278	485.738469798	45.0
5.0381	485.993902388	32.0
5.0483	486.246030065	43.0
5.0586	486.49979923	44.0
5.0688	486.750285005	37.0
5.079	486.99995782	36.0
5.0893	487.251256141	39.0
5.0995	487.499303039	30.0
5.1098	487.748964858	29.0
5.12	487.995396429	43.0
5.1302	488.241028198	27.0
5.1405	488.488259164	37.0
5.1507	488.732291334	31.0
5.161	488.977912285	24.0
5.1712	489.22035527	35.0
5.1814	489.4620114	40.0
5.1917	489.705240843	48.0
5.2019	489.945323263	33.0
5.2122	490.186968749	56.0
5.2224	490.425487707	42.0
5.2326	490.663232544	36.0
5.2429	490.902525229	44.0
5.2531	491.138721828	30.0
5.2634	491.376456194	44.0
5.2736	491.611114635	48.0
5.2838	491.845011486	33.0
5.2941	492.080431132	35.0
5.3043	492.312804802	42.0
5.3146	492.546691351	35.0
5.3248	492.777551759	43.0
5.335	493.007662904	44.0
5.3453	493.239272197	39.0
5.3555	493.467884815	39.0
5.3658	493.697985825	45.0
5.376	493.925109674	45.0
5.3862	494.151496385	35.0
5.3965	494.379356998	39.0
5.4067	494.604269437	43.0
5.417	494.830646178	41.0
5.4272	495.054093944	47.0
5.4374	495.276816505	47.0
5.4477	495.50098911	47.0
5.4579	495.722261259	38.0
5.4682	495.94497401	35.0
5.4784	496.164805193	44.0
5.4886	496.383922908	43.0
5.4989	496.604467198	29.0
5.5091	496.822157976	46.0
5.5194	497.04126604	31.0
5.5296	497.257539175	37.0
5.5398	497.47311039	35.0
5.5501	497.69008509	39.0
5.5603	497.904252464	35.0
5.5706	498.119814184	50.0
5.5808	498.33258686	35.0
5.591	498.544668976	43.0
5.6013	498.758131861	34.0
5.6115	498.968832858	47.0
5.6218	499.180905633	42.0
5.632	499.390234505	34.0
5.6422	499.598883995	28.0
5.6525	499.808891906	39.0
5.6627	500.01618263	43.0
5.673	500.22482293	36.0
5.6832	500.430763738	42.0
5.6934	500.63603616	37.0
5.7037	500.842645016	25.0
5.7139	501.046580664	42.0
5.7242	501.251844045	27.0
5.7344	501.454451626	44.0
5.7446	501.656401638	41.0
5.7549	501.859666455	38.0
5.7651	502.060301331	52.0
5.7754	502.262242448	46.0
5.7856	502.461570752	44.0
5.7958	502.66025213	40.0
5.8061	502.860227031	31.0
5.8163	503.057614558	26.0
5.8266	503.256287186	34.0
5.8368	503.452389288	31.0
5.847	503.647854935	42.0
5.8573	503.84459317	39.0
5.8675	504.038785908	29.0
5.8778	504.234242946	31.0
5.888	504.427171064	16.0
5.8982	504.619473029	41.0
5.9085	504.813026984	37.0
5.9187	505.004076641	42.0
5.929	505.196370136	34.0
5.9392	505.386175642	39.0
5.9494	505.57536513	34.0
5.9597	505.765786343	35.0
5.9699	505.953743792	34.0
5.9802	506.142924947	44.0
5.9904	506.329658382	38.0
6.0006	506.515785768	25.0
6.0109	506.703124945	36.0
6.0211	506.888040234	22.0
6.0314	507.074159423	41.0
6.0416	507.257870509	32.0
6.0518	507.440985356	23.0
6.0621	507.625292379	27.0
6.0723	507.807214747	31.0
6.0826	507.990321529	24.0
6.0928	508.171059184	27.0
6.103	508.35121025	26.0
6.1133	508.532534198	28.0
6.1235	508.711512086	23.0
6.1338	508.891655218	17.0
6.144	509.069467568	30.0
6.1542	509.246702824	36.0
6.1645	509.425091977	24.0
6.1747	509.601173043	20.0
6.185	509.778400492	28.0
6.1952	509.953334885	27.0
6.2054	510.127701523	29.0
6.2157	510.303203382	26.0
6.2259	510.476434512	19.0
6.2362	510.650793471	26.0
6.2464	510.822896486	16.0
6.2566	510.994440937	22.0
6.2669	511.167102235	20.0
6.2771	511.337529556	21.0
6.2874	511.509066451	18.0
6.2976	511.678383917	22.0
6.3078	511.847151858	12.0
6.3181	512.01701857	14.0
6.3283	512.184687462	12.0
6.3386	512.35344797	13.0
6.3488	512.520024971	17.0
6.359	512.686061341	17.0
6.3693	512.853178698	14.0
6.3795	513.018133809	8.0
6.3898	513.184162866	22.0
6.4	513.348043758	10.0
6.4102	513.511392769	17.0
6.4205	513.675805271	15.0
6.4307	513.838090522	13.0
6.441	514.001432339	14.0
6.4512	514.162660758	12.0
6.4614	514.323365906	12.0
6.4717	514.485117332	15.0
6.4819	514.644775938	15.0
6.4922	514.805474007	17.0
6.5024	514.964092886	14.0
6.5126	515.122196963	9.0
6.5229	515.281330382	6.0
6.5331	515.438404855	10.0
6.5434	515.596501968	8.0
6.5536	515.752553543	11.0
6.5638	515.908098647	6.0
6.5741	516.064656434	17.0
6.5843	516.2191886	5.0
6.5946	516.374726853	5.0
6.6048	516.528252676	10.0
6.615	516.681280226	11.0
6.6253	516.835304069	6.0
6.6355	516.987335074	6.0
6.6458	517.140355885	10.0
6.656	517.291396836	9.0
6.6662	517.441947579	8.0
6.6765	517.59347849	4.0
6.6867	517.743048818	10.0
6.697	517.893592931	6.0
6.7072	518.042189229	7.0
6.7174	518.190303254	6.0
6.7277	518.339381582	7.0
6.7379	518.48653106	9.0
6.7482	518.634638561	5.0
6.7584	518.780829774	3.0
6.7686	518.926546519	5.0
6.7789	519.07321196	7.0
6.7891	519.21797977	6.0
6.7994	519.363690098	6.0
6.8096	519.507515153	2.0
6.8198	519.650873419	2.0
6.8301	519.795165026	2.0
6.8403	519.937589716	4.0
6.8506	520.080941669	9.0
6.8608	520.222438863	3.0
6.871	520.363476824	8.0
6.8813	520.505433018	4.0
6.8915	520.645552513	6.0
6.9018	520.786584262	2.0
6.912	520.925791273	3.0
6.9222	521.064546483	0.0
6.9325	521.204205064	5.0
6.9427	521.342056674	5.0
6.953	521.480805773	3.0
6.9632	521.617759667	3.0
6.9734	521.754269073	3.0
6.9837	521.89166723	5.0
6.9939	522.027287661	3.0
7.0042	522.163791055	4.0
7.0144	522.298528301	2.0
7.0246	522.432828252	4.0
7.0349	522.56800257	1.0
7.0451	522.701427935	5.0
7.0554	522.835721972	3.0
7.0656	522.968278446	0.0
7.0758	523.100404704	0.0
7.0861	523.233391176	2.0
7.0963	523.364657003	0.0
7.1066	523.496777441	2.0
7.1168	523.627188441	5.0
7.127	523.757176187	2.0
7.1373	523.888010224	6.0
7.1475	524.017151466	4.0
7.1578	524.147133487	1.0
7.168	524.275433737	1.0
7.1782	524.403317584	2.0
7.1885	524.532034025	0.0
7.1987	524.659085068	2.0
7.209	524.786963283	2.0
7.2192	524.913186947	1.0
7.2294	525.039000947	1.0
7.2397	525.165634065	3.0
7.2499	525.290628742	2.0
7.2602	525.416437201	2.0
7.2704	525.540617888	4.0
7.2806	525.664395543	0.0
7.2909	525.788979058	1.0
7.3011	525.91195065	2.0
7.3114	526.035722854	4.0
7.3216	526.157893631	1.0
7.3318	526.2796679	3.0
7.3421	526.402234985	2.0
7.3523	526.523216237	0.0
7.3626	526.644985142	2.0
7.3728	526.765178541	3.0
7.383	526.884981849	2.0
7.3933	527.005565141	0.0
7.4035	527.124588267	1.0
7.4138	527.244386299	0.0
7.424	527.362634324	0.0
7.4342	527.480498571	3.0
7.4445	527.599130179	2.0
7.4547	527.716226872	1.0
7.465	527.834085929	1.0
7.4752	527.950420066	1.0
7.4854	528.066376638	1.0
7.4957	528.18308815	1.0
7.5059	528.298289591	3.0
7.5162	528.414241055	1.0
7.5264	528.528692282	1.0
7.5366	528.642772055	0.0
7.5469	528.757594548	1.0
7.5571	528.870931412	1.0
7.5674	528.985006159	1.0
7.5776	529.097604952	0.0
7.5878	529.209838301	3.0
7.5981	529.322802351	2.0
7.6083	529.434304816	0.0
7.6186	529.546533222	1.0
7.6288	529.657309562	1.0
7.639	529.767726374	1.0
7.6493	529.878862059	2.0
7.6595	529.988559816	0.0
7.6698	530.098971765	2.0
7.68	530.207955149	2.0
7.6902	530.316584825	0.0
7.7005	530.425921739	1.0
7.7107	530.533843997	1.0
7.721	530.642468889	0.0
7.7312	530.749688337	0.0
7.7414	530.856559802	0.0
7.7517	530.964127058	0.0
7.7619	531.070302555	2.0
7.7722	531.177169313	0.0
7.7824	531.282653376	0.0
7.7926	531.387795087	1.0
7.8029	531.493621327	0.0
7.8131	531.598078336	0.0
7.8234	531.703215416	0.0
7.8336	531.806992181	1.0
7.8438	531.910432135	0.0
7.8541	532.014545539	1.0
7.8643	532.117311873	0.0
7.8746	532.220747271	2.0
7.8848	532.322844371	1.0
7.895	532.424610112	2.0
7.9053	532.527038403	0.0
7.9155	532.628141426	1.0
7.9258	532.729902684	0.0
7.936	532.830347305	1.0
7.9462	532.93046593	0.0
7.9565	533.031236382	0.0
7.9667	533.130703016	1.0
7.977	533.230817231	1.0
7.9872	533.32963612	0.0
7.9974	533.428134288	2.0
8.0077	533.527273734	1.0
8.0179	533.625130464	0.0
