TL-DOS Lehrstuhlversuch
detector=R1407505
job_number=2015-11-05-005
irradiation_dose [mSv]=0.06

[BEGIN DATA]
time [sec] 	 temperature [K] 	 photoncount 
0.0	87.1143146266	0.0
0.0102	89.0086081397	0.0
0.0205	90.9135038781	1.0
0.0307	92.7920464008	0.0
0.041	94.6811029917	1.0
0.0512	96.544025493	4.0
0.0614	98.3992245374	1.0
0.0717	100.264806998	1.0
0.0819	102.104580122	2.0
0.0922	103.954650324	3.0
0.1024	105.779125792	1.0
0.1126	107.5960372	1.0
0.1229	109.423117731	0.0
0.1331	111.224921579	2.0
0.1434	113.036809994	0.0
0.1536	114.8236319	1.0
0.1638	116.603045853	0.0
0.1741	118.392419058	1.0
0.1843	120.157037241	1.0
0.1946	121.931531865	0.0
0.2048	123.681477303	2.0
0.215	125.424167675	2.0
0.2253	127.176611759	2.0
0.2355	128.904811715	0.0
0.2458	130.642684283	2.0
0.256	132.356514311	1.0
0.2662	134.063239002	0.0
0.2765	135.779516109	2.0
0.2867	137.472049439	0.0
0.297	139.174055756	0.0
0.3072	140.852515725	1.0
0.3174	142.524016997	0.0
0.3277	144.204873542	0.0
0.3379	145.862476333	0.0
0.3482	147.52935661	0.0
0.3584	149.173176487	2.0
0.3686	150.810181281	0.0
0.3789	152.456348273	1.0
0.3891	154.079741424	0.0
0.3994	155.712220591	0.0
0.4096	157.322115279	0.0
0.4198	158.925335535	0.0
0.4301	160.537528899	0.0
0.4403	162.127418429	1.0
0.4506	163.726206456	0.0
0.4608	165.302876105	0.0
0.471	166.873009067	0.0
0.4813	168.451929952	0.0
0.4915	170.009007308	1.0
0.5018	171.574799516	0.0
0.512	173.118929824	0.0
0.5222	174.65665835	1.0
0.5325	176.202993432	0.0
0.5427	177.727935794	2.0
0.553	179.261413149	1.0
0.5632	180.773675664	0.0
0.5734	182.279668517	0.0
0.5837	183.794090304	0.0
0.5939	185.287560874	0.0
0.6042	186.789390292	1.0
0.6144	188.270442702	0.0
0.6246	189.745354843	0.0
0.6349	191.228521962	0.0
0.6451	192.691170255	0.0
0.6554	194.162004887	0.0
0.6656	195.612491306	0.0
0.6758	197.05696418	0.0
0.6861	198.509521665	0.0
0.6963	199.941983793	0.0
0.7066	201.382463309	0.0
0.7168	202.80301456	0.0
0.727	204.217676373	0.0
0.7373	205.640255947	0.0
0.7475	207.043154892	0.0
0.7578	208.453905762	0.0
0.768	209.845139646	0.0
0.7782	211.230605639	0.0
0.7885	212.623825987	0.0
0.7987	213.997771874	1.0
0.809	215.379407638	0.0
0.8192	216.741929209	0.0
0.8294	218.098801927	0.0
0.8397	219.463268964	0.0
0.8499	220.808859327	0.0
0.8602	222.161980864	0.0
0.8704	223.496382687	0.0
0.8806	224.825252237	1.0
0.8909	226.161559375	1.0
0.9011	227.479379417	0.0
0.9114	228.804575204	0.0
0.9216	230.111437614	1.0
0.9318	231.412881927	0.0
0.9421	232.721610331	0.0
0.9523	234.012233175	0.0
0.9626	235.310079544	0.0
0.9728	236.589970901	1.0
0.983	237.864555979	1.0
0.9933	239.146274819	0.0
1.0035	240.410261763	0.0
1.0138	241.681323151	0.0
1.024	242.934800084	0.0
1.0342	244.183080249	0.0
1.0445	245.438346949	0.0
1.0547	246.676247704	0.0
1.065	247.921076901	0.0
1.0752	249.148684551	0.0
1.0854	250.371202684	0.0
1.0957	251.600563164	0.0
1.1059	252.812916098	1.0
1.1162	254.032054484	1.0
1.1264	255.234326742	0.0
1.1366	256.43161452	0.0
1.1469	257.635603433	0.0
1.1571	258.822935802	0.0
1.1674	260.016913586	1.0
1.1776	261.194373323	3.0
1.1878	262.366951452	1.0
1.1981	263.546092417	0.0
1.2083	264.708920596	0.0
1.2186	265.878257041	0.0
1.2288	267.031416341	0.0
1.239	268.179794778	0.0
1.2493	269.334600607	0.0
1.2595	270.473430314	1.0
1.2698	271.618633969	1.0
1.28	272.747994343	0.0
1.2902	273.872672523	1.0
1.3005	275.003645445	0.0
1.3107	276.118971961	0.0
1.321	277.24054088	0.0
1.3312	278.346593491	0.0
1.3414	279.448060539	0.0
1.3517	280.555692419	0.0
1.3619	281.648000803	0.0
1.3722	282.746422759	0.0
1.3824	283.829648634	0.0
1.3926	284.908383582	1.0
1.4029	285.993156133	0.0
1.4131	287.062921434	1.0
1.4234	288.138674135	0.0
1.4336	289.199544372	0.0
1.4438	290.256016365	0.0
1.4541	291.318401358	0.0
1.4643	292.36608882	0.0
1.4746	293.419640115	0.0
1.4848	294.45861609	1.0
1.495	295.493284593	1.0
1.5053	296.533744062	0.0
1.5155	297.559809329	0.0
1.5258	298.59161741	0.0
1.536	299.609150977	0.0
1.5462	300.62246597	0.0
1.5565	301.641452415	0.0
1.5667	302.646341726	2.0
1.577	303.656855331	1.0
1.5872	304.653389019	0.0
1.5974	305.645791197	2.0
1.6077	306.643747778	2.0
1.6179	307.627898163	0.0
1.6282	308.617556767	2.0
1.6384	309.593523972	0.0
1.6486	310.565444933	0.0
1.6589	311.542805666	0.0
1.6691	312.506645135	0.0
1.6794	313.475879144	1.0
1.6896	314.431704318	0.0
1.6998	315.383566754	3.0
1.7101	316.340756696	1.0
1.7203	317.284704426	0.0
1.7306	318.233935363	1.0
1.7408	319.170034198	0.0
1.751	320.102252077	0.0
1.7613	321.039687513	1.0
1.7715	321.96415403	0.0
1.7818	322.89379472	0.0
1.792	323.810574328	0.0
1.8022	324.723553075	0.0
1.8125	325.641641699	1.0
1.8227	326.547029057	0.0
1.833	327.457483804	1.0
1.8432	328.355342894	0.0
1.8534	329.249479568	0.0
1.8637	330.14862066	0.0
1.8739	331.035322615	1.0
1.8842	331.926987377	1.0
1.8944	332.806316434	2.0
1.9046	333.681999896	0.0
1.9149	334.562584495	3.0
1.9251	335.430986677	1.0
1.9354	336.304249244	2.0
1.9456	337.165430689	1.0
1.9558	338.023041777	1.0
1.9661	338.885452854	2.0
1.9763	339.735932933	2.0
1.9866	340.591173089	1.0
1.9968	341.434581454	0.0
2.007	342.274493147	1.0
2.0173	343.119105766	6.0
2.0275	343.95203362	0.0
2.0378	344.789623312	1.0
2.048	345.615625397	1.0
2.0582	346.438202976	1.0
2.0685	347.265384462	2.0
2.0787	348.081122334	1.0
2.089	348.901425832	1.0
2.0992	349.710380869	1.0
2.1094	350.515982075	2.0
2.1197	351.326092172	1.0
2.1299	352.124994829	2.0
2.1402	352.928368887	1.0
2.1504	353.720628693	3.0
2.1606	354.509603884	4.0
2.1709	355.302994913	2.0
2.1811	356.0854098	4.0
2.1914	356.872203808	5.0
2.2016	357.64811294	2.0
2.2118	358.420805244	2.0
2.2221	359.197822253	2.0
2.2323	359.964089645	0.0
2.2426	360.734645782	5.0
2.2528	361.494541685	1.0
2.263	362.25128715	6.0
2.2733	363.012268065	4.0
2.2835	363.762721216	5.0
2.2938	364.517374599	3.0
2.304	365.261587755	4.0
2.3142	366.002715491	1.0
2.3245	366.747991266	3.0
2.3347	367.482956549	9.0
2.345	368.22203538	4.0
2.3552	368.95088945	6.0
2.3654	369.676721777	4.0
2.3757	370.406616535	3.0
2.3859	371.126413589	5.0
2.3962	371.850239296	5.0
2.4064	372.56405126	2.0
2.4166	373.274903844	8.0
2.4269	373.98973502	7.0
2.4371	374.694676887	4.0
2.4474	375.403564264	5.0
2.4576	376.102644562	7.0
2.4678	376.798826556	5.0
2.4781	377.498905031	7.0
2.4883	378.189298294	7.0
2.4986	378.883555638	0.0
2.5088	379.568208303	4.0
2.519	380.250022478	6.0
2.5293	380.935652719	2.0
2.5395	381.611797631	8.0
2.5498	382.291726878	7.0
2.56	382.962249667	6.0
2.5702	383.629992547	5.0
2.5805	384.301472737	5.0
2.5907	384.963663357	2.0
2.601	385.62956021	12.0
2.6112	386.286244735	6.0
2.6214	386.940206725	4.0
2.6317	387.597828892	14.0
2.6419	388.246353208	5.0
2.6522	388.898507268	17.0
2.6624	389.541639125	6.0
2.6726	390.182104633	10.0
2.6829	390.826154781	7.0
2.6931	391.461294838	10.0
2.7034	392.09998973	9.0
2.7136	392.729848618	6.0
2.7238	393.357096186	11.0
2.7341	393.987854413	6.0
2.7443	394.609886437	17.0
2.7546	395.23539993	18.0
2.7648	395.852259777	6.0
2.775	396.466562197	7.0
2.7853	397.084302823	8.0
2.7955	397.693497337	15.0
2.8058	398.30610147	8.0
2.816	398.910230551	5.0
2.8262	399.511854984	14.0
2.8365	400.116846667	10.0
2.8467	400.713468612	8.0
2.857	401.313429808	6.0
2.8672	401.90509086	14.0
2.8774	402.494298956	7.0
2.8877	403.086804808	13.0
2.8979	403.671113657	11.0
2.9082	404.258692841	8.0
2.9184	404.838143181	9.0
2.9286	405.415191188	9.0
2.9389	405.995468891	9.0
2.9491	406.567718762	14.0
2.9594	407.143171475	13.0
2.9696	407.710663107	12.0
2.9798	408.275801985	18.0
2.9901	408.844103905	8.0
3.0003	409.404543672	12.0
3.0106	409.96812018	11.0
3.0208	410.523899907	10.0
3.031	411.077375438	8.0
3.0413	411.633948731	10.0
3.0515	412.18282213	3.0
3.0618	412.734767534	6.0
3.072	413.279077068	10.0
3.0822	413.821129959	9.0
3.0925	414.366216682	7.0
3.1027	414.90376242	8.0
3.113	415.444316764	9.0
3.1232	415.977392826	11.0
3.1334	416.508258819	10.0
3.1437	417.04209603	8.0
3.1539	417.568547888	6.0
3.1642	418.09794626	7.0
3.1744	418.620020688	8.0
3.1846	419.139930657	4.0
3.1949	419.662750525	12.0
3.2051	420.178337459	5.0
3.2154	420.696810096	5.0
3.2256	421.208109941	7.0
3.2358	421.717289998	9.0
3.2461	422.229319898	4.0
3.2563	422.734266138	7.0
3.2666	423.242038527	3.0
3.2768	423.742786155	10.0
3.287	424.241457743	9.0
3.2973	424.74292036	11.0
3.3075	425.237445509	9.0
3.3178	425.73473848	5.0
3.328	426.225151669	6.0
3.3382	426.713531662	5.0
3.3485	427.204645083	4.0
3.3587	427.688964212	4.0
3.369	428.175994041	9.0
3.3792	428.656286071	6.0
3.3894	429.134586868	6.0
3.3997	429.61556468	6.0
3.4099	430.089888421	8.0
3.4202	430.566866918	10.0
3.4304	431.037246672	4.0
3.4406	431.505676287	4.0
3.4509	431.976727669	8.0
3.4611	432.441262307	9.0
3.4714	432.908396912	9.0
3.4816	433.369068959	9.0
3.4918	433.827831114	8.0
3.5021	434.289160928	12.0
3.5123	434.74410849	7.0
3.5226	435.201602361	7.0
3.5328	435.652767049	7.0
3.543	436.102061261	12.0
3.5533	436.553870141	5.0
3.5635	436.999428486	2.0
3.5738	437.447480589	11.0
3.584	437.889334131	8.0
3.5942	438.3293558	11.0
3.6045	438.771840239	11.0
3.6147	439.208203141	14.0
3.625	439.647008336	11.0
3.6352	440.079742895	10.0
3.6454	440.510683388	5.0
3.6557	440.944035823	14.0
3.6659	441.371393059	9.0
3.6762	441.801142183	11.0
3.6864	442.224945958	8.0
3.6966	442.646992692	11.0
3.7069	443.071401591	11.0
3.7171	443.489939019	12.0
3.7274	443.910818972	12.0
3.7376	444.325876275	15.0
3.7478	444.7392128	10.0
3.7581	445.15486274	11.0
3.7683	445.564762384	13.0
3.7786	445.976956208	7.0
3.7888	446.38344755	9.0
3.799	446.788253627	9.0
3.8093	447.195325374	11.0
3.8195	447.596765501	15.0
3.8298	448.00045246	7.0
3.84	448.398554625	12.0
3.8502	448.795006306	11.0
3.8605	449.193676899	12.0
3.8707	449.586832096	9.0
3.881	449.982187755	15.0
3.8912	450.37207388	8.0
3.9014	450.760343583	10.0
3.9117	451.150786403	16.0
3.9219	451.535827655	11.0
3.9322	451.923023956	6.0
3.9424	452.304863603	12.0
3.9526	452.685120188	13.0
3.9629	453.067505041	14.0
3.9731	453.444599804	9.0
3.9834	453.82380514	5.0
3.9936	454.197764372	13.0
4.0038	454.570173213	13.0
4.0141	454.9446664	9.0
4.0243	455.313978674	11.0
4.0346	455.685357962	6.0
4.0448	456.051599416	15.0
4.055	456.416322476	12.0
4.0653	456.783086864	7.0
4.0755	457.144777264	9.0
4.0858	457.508492018	10.0
4.096	457.867174973	11.0
4.1062	458.224370871	6.0
4.1165	458.583565969	13.0
4.1267	458.937791794	17.0
4.137	459.294000196	5.0
4.1472	459.645280645	13.0
4.1574	459.995104727	9.0
4.1677	460.346886749	11.0
4.1779	460.693802054	13.0
4.1882	461.04265902	9.0
4.1984	461.386689736	9.0
4.2086	461.729294141	12.0
4.2189	462.073816078	8.0
4.2291	462.413571738	8.0
4.2394	462.755228986	8.0
4.2496	463.092159589	6.0
4.2598	463.427693317	11.0
4.2701	463.765105004	8.0
4.2803	464.09784878	10.0
4.2906	464.432454899	10.0
4.3008	464.762431921	7.0
4.311	465.091040897	4.0
4.3213	465.421489074	6.0
4.3315	465.747365677	8.0
4.3418	466.075066188	11.0
4.352	466.398233137	11.0
4.3622	466.720060274	14.0
4.3725	467.043688655	4.0
4.3827	467.36283981	13.0
4.393	467.683777231	5.0
4.4032	468.000274654	8.0
4.4134	468.315459916	8.0
4.4237	468.632409248	8.0
4.4339	468.944973755	16.0
4.4442	469.259287663	13.0
4.4544	469.569253206	10.0
4.4646	469.877933668	8.0
4.4749	470.188341792	8.0
4.4851	470.494455586	9.0
4.4954	470.802282677	10.0
4.5056	471.105851145	9.0
4.5158	471.408161053	13.0
4.5261	471.712162969	6.0
4.5363	472.01195918	9.0
4.5466	472.313433329	10.0
4.5568	472.610736744	10.0
4.567	472.906807575	11.0
4.5773	473.204535492	10.0
4.5875	473.498144503	7.0
4.5978	473.793396823	8.0
4.608	474.084564484	8.0
4.6182	474.374524998	9.0
4.6285	474.666108401	9.0
4.6387	474.953657903	6.0
4.649	475.242816799	9.0
4.6592	475.527975336	8.0
4.6694	475.811951639	6.0
4.6797	476.097517338	9.0
4.6899	476.379132387	0.0
4.7002	476.662323616	7.0
4.7104	476.941597045	4.0
4.7206	477.219712639	12.0
4.7309	477.499384827	11.0
4.7411	477.775187899	8.0
4.7514	478.052534621	6.0
4.7616	478.3260444	6.0
4.7718	478.598420239	8.0
4.7821	478.872320546	14.0
4.7923	479.142431589	4.0
4.8026	479.414054424	7.0
4.8128	479.681919502	12.0
4.823	479.948674043	8.0
4.8333	480.21692159	9.0
4.8435	480.481458075	9.0
4.8538	480.747475152	14.0
4.864	481.009812025	3.0
4.8742	481.27106128	10.0
4.8845	481.533772729	8.0
4.8947	481.792849705	8.0
4.905	482.053376716	8.0
4.9152	482.310299475	9.0
4.9254	482.566157063	8.0
4.9357	482.823446667	8.0
4.9459	483.077176807	5.0
4.9562	483.332327057	9.0
4.9664	483.583947438	5.0
4.9766	483.834524632	5.0
4.9869	484.086504288	3.0
4.9971	484.33499794	14.0
5.0074	484.584882393	11.0
5.0176	484.831309829	6.0
5.0278	485.076715605	8.0
5.0381	485.3234949	4.0
5.0483	485.566860135	8.0
5.0586	485.811587467	11.0
5.0688	486.052929128	7.0
5.079	486.293270215	8.0
5.0893	486.534956473	9.0
5.0995	486.773299132	6.0
5.1098	487.012975777	12.0
5.12	487.249336623	4.0
5.1302	487.484717546	8.0
5.1405	487.721415878	6.0
5.1507	487.954839616	9.0
5.161	488.189569809	5.0
5.1712	488.421052636	11.0
5.1814	488.651575762	11.0
5.1917	488.883389109	12.0
5.2019	489.111995443	7.0
5.2122	489.34188127	8.0
5.2224	489.568586749	9.0
5.2326	489.794352334	10.0
5.2429	490.021381513	6.0
5.2531	490.245269864	7.0
5.2634	490.470411303	3.0
5.2736	490.692438029	7.0
5.2838	490.91354426	6.0
5.2941	491.135888006	5.0
5.3043	491.355155745	6.0
5.3146	491.575650709	5.0
5.3248	491.793095244	5.0
5.335	492.009638279	3.0
5.3453	492.22739329	6.0
5.3555	492.442135777	7.0
5.3658	492.658080162	8.0
5.376	492.871037072	9.0
5.3862	493.083111088	5.0
5.3965	493.296372066	7.0
5.4067	493.506682693	7.0
5.417	493.718170414	6.0
5.4272	493.926732315	7.0
5.4374	494.134429542	5.0
5.4477	494.343289237	8.0
5.4579	494.549259468	9.0
5.4682	494.756382501	7.0
5.4784	494.960640097	6.0
5.4886	495.164050865	6.0
5.4989	495.368600108	5.0
5.5091	495.570319522	7.0
5.5194	495.773167945	3.0
5.5296	495.973210069	10.0
5.5398	496.172422841	4.0
5.5501	496.372750593	10.0
5.5603	496.570306918	5.0
5.5706	496.768968951	9.0
5.5808	496.964882601	2.0
5.591	497.159984016	9.0
5.6013	497.3561774	6.0
5.6115	497.549656553	3.0
5.6218	497.744218595	5.0
5.632	497.936088975	10.0
5.6422	498.127163883	5.0
5.6525	498.319308223	14.0
5.6627	498.50879435	6.0
5.673	498.699341016	4.0
5.6832	498.887251571	7.0
5.6934	499.074383071	6.0
5.7037	499.262561933	2.0
5.7139	499.448137441	7.0
5.7242	499.634751601	9.0
5.7344	499.818784055	7.0
5.7446	500.002053531	7.0
5.7549	500.186348753	7.0
5.7651	500.36809435	8.0
5.7754	500.550857164	4.0
5.7856	500.731091551	9.0
5.7958	500.910578708	2.0
5.8061	501.091070442	5.0
5.8163	501.269065169	7.0
5.8266	501.44805612	7.0
5.8368	501.624570827	8.0
5.847	501.800353724	5.0
5.8573	501.977120466	5.0
5.8675	502.151441734	10.0
5.8778	502.326738666	11.0
5.888	502.499610459	7.0
5.8982	502.671765545	7.0
5.9085	502.844884171	7.0
5.9187	503.015607794	10.0
5.929	503.187286944	5.0
5.9392	503.356591005	10.0
5.9494	503.525193151	12.0
5.9597	503.694738951	5.0
5.9699	503.861939176	7.0
5.9802	504.030075208	6.0
5.9904	504.195885168	5.0
6.0006	504.3610077	12.0
6.0109	504.52705441	5.0
6.0211	504.690803953	5.0
6.0314	504.855469991	4.0
6.0416	505.017857962	4.0
6.0518	505.179572691	9.0
6.0621	505.342192526	6.0
6.0723	505.502562603	9.0
6.0826	505.663830259	10.0
6.0928	505.822866864	4.0
6.103	505.981244121	8.0
6.1133	506.140507805	4.0
6.1235	506.29756816	5.0
6.1338	506.455507571	5.0
6.144	506.611261975	3.0
6.1542	506.766370639	4.0
6.1645	506.922347436	6.0
6.1747	507.076166377	8.0
6.185	507.230846231	3.0
6.1952	507.383386172	3.0
6.2054	507.535293701	8.0
6.2157	507.688051445	6.0
6.2259	507.838695867	3.0
6.2362	507.990183435	4.0
6.2464	508.139575254	7.0
6.2566	508.288347712	4.0
6.2669	508.437952838	3.0
6.2771	508.585488258	3.0
6.2874	508.733849422	8.0
6.2976	508.88015809	6.0
6.3078	509.025860178	6.0
6.3181	509.172377751	2.0
6.3283	509.316868332	7.0
6.3386	509.462167616	3.0
6.3488	509.605456762	4.0
6.359	509.748151848	7.0
6.3693	509.891645588	4.0
6.3795	510.033154169	3.0
6.3898	510.175454763	5.0
6.4	510.315786705	2.0
6.4102	510.455536847	3.0
6.4205	510.59606916	3.0
6.4307	510.734657284	6.0
6.441	510.874021076	5.0
6.4512	511.011456844	3.0
6.4614	511.148322819	1.0
6.4717	511.285954824	4.0
6.4819	511.421682763	3.0
6.4922	511.558170362	4.0
6.5024	511.692769728	1.0
6.5126	511.826811061	4.0
6.5229	511.961602613	2.0
6.5331	512.094529396	1.0
6.5434	512.228200162	1.0
6.5536	512.360021663	4.0
6.5638	512.491296648	3.0
6.5741	512.623306369	1.0
6.5843	512.753489807	2.0
6.5946	512.884401872	4.0
6.6048	513.013502839	3.0
6.615	513.142068568	1.0
6.6253	513.27135387	3.0
6.6355	513.398850579	2.0
6.6458	513.527060878	3.0
6.656	513.653497456	2.0
6.6662	513.779409843	3.0
6.6765	513.906026953	1.0
6.6867	514.030892382	3.0
6.697	514.156456674	3.0
6.7072	514.280283852	3.0
6.7174	514.403597656	3.0
6.7277	514.527601639	1.0
6.7379	514.649890093	0.0
6.7482	514.772862987	1.0
6.7584	514.894134617	1.0
6.7686	515.014903468	3.0
6.7789	515.136348254	0.0
6.7891	515.256112917	4.0
6.7994	515.376547894	1.0
6.8096	515.495316717	2.0
6.8198	515.613593138	2.0
6.8301	515.732531545	1.0
6.8403	515.849824501	3.0
6.8506	515.967773939	2.0
6.8608	516.084091608	4.0
6.871	516.199927039	2.0
6.8813	516.316410792	2.0
6.8915	516.431283054	1.0
6.9018	516.546798248	2.0
6.912	516.660715351	0.0
6.9222	516.774160168	3.0
6.9325	516.888239927	2.0
6.9427	517.000741453	1.0
6.953	517.113872642	1.0
6.9632	517.225438722	1.0
6.9734	517.336542262	3.0
6.9837	517.44826764	1.0
6.9939	517.558447358	1.0
7.0042	517.669243743	3.0
7.0144	517.77850732	2.0
7.0246	517.887317902	2.0
7.0349	517.99673749	0.0
7.0451	518.104643316	1.0
7.0554	518.213153084	0.0
7.0656	518.320161676	2.0
7.0758	518.426726624	3.0
7.0861	518.533888008	1.0
7.0963	518.639566872	2.0
7.1066	518.745837212	0.0
7.1168	518.850637359	0.0
7.127	518.955003017	1.0
7.1373	519.059952803	0.0
7.1475	519.163450664	3.0
7.1578	519.267527795	0.0
7.168	519.370165074	1.0
7.1782	519.472376832	4.0
7.1885	519.575160661	3.0
7.1987	519.676522531	0.0
7.209	519.778451716	1.0
7.2192	519.878970765	1.0
7.2294	519.979073074	4.0
7.2397	520.079735649	0.0
7.2499	520.17900561	2.0
7.2602	520.278831179	1.0
7.2704	520.377275714	1.0
7.2806	520.475312109	0.0
7.2909	520.573897208	1.0
7.3011	520.671118434	2.0
7.3114	520.7688838	0.0
7.3216	520.865296635	0.0
7.3318	520.961309753	0.0
7.3421	521.05786025	0.0
7.3523	521.153075022	0.0
7.3626	521.248822705	0.0
7.3728	521.34324577	2.0
7.383	521.437277367	1.0
7.3933	521.531835253	1.0
7.4035	521.625084981	3.0
7.4138	521.718856621	0.0
7.424	521.811330981	1.0
7.4342	521.903421952	0.0
7.4445	521.99602835	0.0
7.4547	522.087353589	2.0
7.465	522.179189968	2.0
7.4752	522.269755839	0.0
7.4854	522.359946235	1.0
7.4957	522.450641421	0.0
7.5059	522.540081887	1.0
7.5162	522.630022945	0.0
7.5264	522.718719716	0.0
7.5366	522.807048761	1.0
7.5469	522.895872177	1.0
7.5571	522.983466769	1.0
7.5674	523.071551622	0.0
7.5776	523.158417867	0.0
7.5878	523.244923976	0.0
7.5981	523.331914252	0.0
7.6083	523.417701065	1.0
7.6186	523.503968021	2.0
7.6288	523.589041519	0.0
7.639	523.673762312	1.0
7.6493	523.758957282	0.0
7.6595	523.842973625	0.0
7.6698	523.927460201	0.0
7.68	524.010777951	0.0
7.6902	524.093750275	1.0
7.7005	524.177186989	1.0
7.7107	524.259469401	1.0
7.721	524.342212341	0.0
7.7312	524.423810577	1.0
7.7414	524.505070517	0.0
7.7517	524.586785262	0.0
7.7619	524.667369528	1.0
7.7722	524.748404818	0.0
7.7824	524.828319028	0.0
7.7926	524.907901923	0.0
7.8029	524.987930238	1.0
7.8131	525.066851404	0.0
7.8234	525.146214286	2.0
7.8336	525.224479225	1.0
7.8438	525.302419687	1.0
7.8541	525.380796376	0.0
7.8643	525.458088765	1.0
7.8746	525.535813754	0.0
7.8848	525.61246346	1.0
7.895	525.688795384	2.0
7.9053	525.765554534	1.0
7.9155	525.841251761	0.0
7.9258	525.91737266	2.0
7.936	525.992440468	0.0
7.9462	526.067197053	2.0
7.9565	526.142372045	0.0
7.9667	526.216507031	1.0
7.977	526.291056946	0.0
7.9872	526.364575502	0.0
7.9974	526.437789259	2.0
8.0077	526.511412788	0.0
8.0179	526.584017775	0.0
8.0282	526.657029127	1.0
8.0384	526.729030406	0.0
8.0486	526.800733176	0.0
8.0589	526.872837262	0.0
8.0691	526.943943825	0.0
8.0794	527.015448368	1.0
8.0896	527.085963682	0.0
8.0998	527.156186649	1.0
8.1101	527.226802649	1.0
8.1203	527.296441714	1.0
8.1306	527.366470544	1.0
8.1408	527.435530562	0.0
8.151	527.504304266	1.0
