TL-DOS Lehrstuhlversuch
detector=R1407202
job_number=2015-10-26-007
irradiation_dose [mSv]=10.0

[BEGIN DATA]
time [sec] 	 temperature [K] 	 photoncount 
0.0	205.488991452	0.0
0.0102	206.482940165	2.0
0.0205	207.483887348	2.0
0.0307	208.472404564	0.0
0.041	209.467882008	0.0
0.0512	210.450997409	3.0
0.0614	211.431436085	0.0
0.0717	212.418778107	1.0
0.0819	213.393859113	0.0
0.0922	214.375805742	3.0
0.1024	215.345558356	1.0
0.1126	216.312670628	2.0
0.1229	217.286592414	0.0
0.1331	218.248419839	0.0
0.1434	219.217019568	0.0
0.1536	220.173591026	1.0
0.1638	221.12755803	4.0
0.1741	222.088241991	2.0
0.1843	223.036995982	1.0
0.1946	223.992430225	2.0
0.2048	224.935999689	0.0
0.215	225.8770001	0.0
0.2253	226.824626169	2.0
0.2355	227.760484424	1.0
0.2458	228.70293213	1.0
0.256	229.633676327	1.0
0.2662	230.56188639	1.0
0.2765	231.496632054	0.0
0.2867	232.419769854	0.0
0.297	233.349407541	0.0
0.3072	234.267500796	0.0
0.3174	235.183094361	0.0
0.3277	236.105134694	0.0
0.3379	237.01572494	0.0
0.3482	237.932726724	0.0
0.3584	238.838340992	0.0
0.3686	239.741489547	0.0
0.3789	240.650997242	0.0
0.3891	241.549210484	0.0
0.3994	242.453748117	0.0
0.4096	243.347053016	0.0
0.4198	244.237925716	0.0
0.4301	245.135071122	0.0
0.4403	246.021075592	0.0
0.4506	246.91331849	0.0
0.4608	247.794481332	0.0
0.471	248.673245035	0.0
0.4813	249.558196183	0.0
0.4915	250.432157825	0.0
0.5018	251.312273101	0.0
0.512	252.181458925	0.0
0.5222	253.04827822	0.0
0.5325	253.921200858	0.0
0.5427	254.783283363	0.0
0.553	255.651435859	0.0
0.5632	256.50880746	0.0
0.5734	257.363844698	1.0
0.5837	258.22490232	0.0
0.5939	259.075267153	0.0
0.6042	259.931619471	0.0
0.6144	260.777337431	0.0
0.6246	261.620752757	0.0
0.6349	262.470106638	0.0
0.6451	263.308913067	0.0
0.6554	264.153625599	1.0
0.6656	264.987848317	0.0
0.6758	265.819799701	0.0
0.6861	266.657608919	0.0
0.6963	267.485014051	0.0
0.7066	268.318245008	0.0
0.7168	269.141128731	0.0
0.727	269.961771992	0.0
0.7373	270.788193467	1.0
0.7475	271.604352271	0.0
0.7578	272.426257713	1.0
0.768	273.237956565	0.0
0.7782	274.047445408	0.0
0.7885	274.862633925	1.0
0.7987	275.667699264	0.0
0.809	276.478433131	0.0
0.8192	277.27909914	0.0
0.8294	278.077585177	0.0
0.8397	278.881693418	0.0
0.8499	279.675816078	0.0
0.8602	280.475530218	1.0
0.8704	281.265313344	1.0
0.8806	282.05294613	0.0
0.8909	282.846124701	0.0
0.9011	283.629453417	1.0
0.9114	284.418297613	0.0
0.9216	285.19734578	0.0
0.9318	285.974272835	1.0
0.9421	286.756670295	0.0
0.9523	287.529351783	0.0
0.9626	288.307473782	0.0
0.9728	289.075932903	0.0
0.983	289.842299742	0.0
0.9933	290.614062632	0.0
1.0035	291.376241611	0.0
1.0138	292.143787153	0.0
1.024	292.901801156	0.0
1.0342	293.657751318	0.0
1.0445	294.419024184	0.0
1.0547	295.170843408	0.0
1.065	295.92795625	1.0
1.0752	296.67566711	0.0
1.0854	297.42134218	1.0
1.0957	298.172267607	1.0
1.1059	298.913867888	0.0
1.1162	299.660689835	0.0
1.1264	300.398237594	0.0
1.1366	301.133777234	0.0
1.1469	301.874495867	0.0
1.1571	302.606016104	0.0
1.1674	303.342687033	0.0
1.1776	304.070209832	0.0
1.1878	304.795751806	0.0
1.1981	305.526402379	2.0
1.2083	306.247979583	0.0
1.2186	306.974637469	0.0
1.2288	307.692271568	0.0
1.239	308.407951768	1.0
1.2493	309.128671128	3.0
1.2595	309.840440448	1.0
1.2698	310.557221392	0.0
1.28	311.265101202	4.0
1.2902	311.971053671	2.0
1.3005	312.681976807	2.0
1.3107	313.384071554	2.0
1.321	314.091109805	1.0
1.3312	314.78936791	3.0
1.3414	315.48572487	2.0
1.3517	316.186984935	0.0
1.3619	316.879536608	5.0
1.3722	317.576964593	0.0
1.3824	318.265731773	4.0
1.3926	318.95262365	3.0
1.4029	319.644351986	2.0
1.4131	320.327490298	0.0
1.4234	321.015438641	1.0
1.4336	321.694843901	2.0
1.4438	322.372399346	3.0
1.4541	323.054725512	3.0
1.4643	323.728578412	3.0
1.4746	324.407175964	4.0
1.4848	325.077346552	2.0
1.495	325.745692469	7.0
1.5053	326.418744262	1.0
1.5155	327.08343796	1.0
1.5258	327.752811819	6.0
1.536	328.413873256	4.0
1.5462	329.073134823	4.0
1.5565	329.737038303	4.0
1.5667	330.392697294	5.0
1.577	331.052972831	5.0
1.5872	331.705048931	5.0
1.5974	332.355349626	1.0
1.6077	333.010229139	2.0
1.6179	333.656976225	3.0
1.6282	334.308277107	11.0
1.6384	334.951490002	3.0
1.6486	335.592951623	10.0
1.6589	336.238929826	8.0
1.6691	336.876886139	7.0
1.6794	337.519334353	8.0
1.6896	338.153804514	1.0
1.6998	338.786547204	10.0
1.7101	339.423745086	10.0
1.7203	340.053030114	10.0
1.7306	340.686745988	6.0
1.7408	341.312592247	14.0
1.751	341.936734518	14.0
1.7613	342.565271423	12.0
1.7715	343.186003028	15.0
1.7818	343.811105254	10.0
1.792	344.428444831	15.0
1.8022	345.044103581	10.0
1.8125	345.664097232	12.0
1.8227	346.276391675	15.0
1.833	346.892997331	14.0
1.8432	347.501945852	18.0
1.8534	348.109236391	24.0
1.8637	348.720802911	23.0
1.8739	349.324774872	20.0
1.8842	349.932999448	19.0
1.8944	350.533670965	23.0
1.9046	351.132707037	26.0
1.9149	351.735960969	15.0
1.9251	352.33172357	24.0
1.9354	352.931680982	27.0
1.9456	353.524188	32.0
1.9558	354.115081802	39.0
1.9661	354.710136133	39.0
1.9763	355.297800958	38.0
1.9866	355.889603577	42.0
1.9968	356.474057069	40.0
2.007	357.056919272	47.0
2.0173	357.643885455	44.0
2.0275	358.22356257	49.0
2.0378	358.807321238	65.0
2.048	359.383830671	44.0
2.0582	359.958770444	53.0
2.0685	360.537758413	60.0
2.0787	361.109556391	71.0
2.089	361.685380443	54.0
2.0992	362.254053795	58.0
2.1094	362.821178821	86.0
2.1197	363.39229702	72.0
2.1299	363.956322955	73.0
2.1402	364.524320242	94.0
2.1504	365.085264022	86.0
2.1606	365.644680522	94.0
2.1709	366.208035918	83.0
2.1811	366.764395451	121.0
2.1914	367.324672356	107.0
2.2016	367.877991627	114.0
2.2118	368.429804377	135.0
2.2221	368.985502485	121.0
2.2323	369.534299819	129.0
2.2426	370.086961279	143.0
2.2528	370.632759676	140.0
2.263	371.177072029	175.0
2.2733	371.725216929	145.0
2.2835	372.266554852	174.0
2.2938	372.811704379	185.0
2.304	373.350084127	204.0
2.3142	373.886998031	220.0
2.3245	374.427692388	231.0
2.3347	374.961672291	238.0
2.345	375.499411989	249.0
2.3552	376.030473925	234.0
2.3654	376.56008994	252.0
2.3757	377.093435024	291.0
2.3859	377.620156919	292.0
2.3962	378.150587505	277.0
2.4064	378.674431095	286.0
2.4166	379.196848417	335.0
2.4269	379.722944122	327.0
2.4371	380.242506662	332.0
2.4474	380.765727482	350.0
2.4576	381.28245084	392.0
2.4678	381.797767316	438.0
2.4781	382.316712177	453.0
2.4883	382.829212673	448.0
2.4986	383.345321727	432.0
2.5088	383.855021632	455.0
2.519	384.363333779	496.0
2.5293	384.875224992	453.0
2.5395	385.380759434	527.0
2.5498	385.889853385	537.0
2.56	386.392625303	591.0
2.5702	386.894028325	616.0
2.5805	387.398961766	594.0
2.5907	387.897624839	607.0
2.601	388.399799039	636.0
2.6112	388.895737137	671.0
2.6214	389.390324945	711.0
2.6317	389.888395185	687.0
2.6419	390.380280287	702.0
2.6522	390.875628791	753.0
2.6624	391.364825956	815.0
2.6726	391.852691185	842.0
2.6829	392.343991511	898.0
2.6931	392.82919077	843.0
2.7034	393.317806354	866.0
2.7136	393.800354211	922.0
2.7238	394.281588235	931.0
2.7341	394.766210667	1008.0
2.7443	395.244814958	970.0
2.7546	395.726789139	1043.0
2.7648	396.202778066	1000.0
2.775	396.67747102	1062.0
2.7853	397.155506325	1025.0
2.7955	397.627605289	1082.0
2.8058	398.103028339	1135.0
2.816	398.572547488	1099.0
2.8262	399.040788278	1066.0
2.8365	399.51232599	1155.0
2.8467	399.978008049	1149.0
2.857	400.446969013	1177.0
2.8672	400.910106322	1135.0
2.8774	401.37198265	1103.0
2.8877	401.837111085	1175.0
2.8979	402.29646346	1158.0
2.9082	402.759050172	1181.0
2.9184	403.215892387	1198.0
2.9286	403.671490759	1268.0
2.9389	404.130297035	1188.0
2.9491	404.58340576	1245.0
2.9594	405.039704861	1214.0
2.9696	405.490337545	1235.0
2.9798	405.939743293	1247.0
2.9901	406.392313342	1185.0
3.0003	406.839263284	1156.0
3.0106	407.289360236	1178.0
3.0208	407.733867791	1184.0
3.031	408.177165087	1178.0
3.0413	408.623583675	1170.0
3.0515	409.064458545	1174.0
3.0618	409.50843765	1168.0
3.072	409.946903331	1116.0
3.0822	410.384175203	1149.0
3.0925	410.824525941	1037.0
3.1027	411.259408313	1084.0
3.113	411.697352726	1070.0
3.1232	412.129858656	1036.0
3.1334	412.561187003	1005.0
3.1437	412.995552367	998.0
3.1539	413.424523693	977.0
3.1642	413.85651544	976.0
3.1744	414.283142625	916.0
3.1846	414.708608234	894.0
3.1949	415.137069579	836.0
3.2051	415.560210204	884.0
3.2154	415.986330195	866.0
3.2256	416.407158541	855.0
3.2358	416.826841099	832.0
3.2461	417.249478675	713.0
3.2563	417.666867851	727.0
3.2666	418.087195897	743.0
3.2768	418.502304223	742.0
3.287	418.916282335	709.0
3.2973	419.3331753	708.0
3.3075	419.744891202	693.0
3.3178	420.159506028	713.0
3.328	420.568972083	730.0
3.3382	420.977323286	712.0
3.3485	421.388549722	675.0
3.3587	421.794669463	699.0
3.369	422.203648726	692.0
3.3792	422.6075492	753.0
3.3894	423.010349976	715.0
3.3997	423.415986904	714.0
3.4099	423.81658655	791.0
3.4202	424.220006849	722.0
3.4304	424.618417392	737.0
3.4406	425.015743184	725.0
3.4509	425.415866579	766.0
3.4611	425.811021159	773.0
3.4714	426.208958054	746.0
3.4816	426.601953286	829.0
3.4918	426.993878512	830.0
3.5021	427.388563315	796.0
3.5123	427.77834684	846.0
3.5226	428.170874863	869.0
3.5328	428.558528391	874.0
3.543	428.945126457	927.0
3.5533	429.33444659	961.0
3.5635	429.718932066	934.0
3.5738	430.106124735	881.0
3.584	430.488509166	951.0
3.5942	430.86985248	1007.0
3.6045	431.253880862	1051.0
3.6147	431.633140301	1013.0
3.625	432.015070136	1042.0
3.6352	432.392257087	1065.0
3.6454	432.768417074	1077.0
3.6557	433.147225632	1060.0
3.6659	433.521330068	1153.0
3.6762	433.898068603	1155.0
3.6864	434.270128721	1102.0
3.6966	434.641175833	1147.0
3.7069	435.014835516	1216.0
3.7171	435.383855017	1225.0
3.7274	435.755472814	1301.0
3.7376	436.122475784	1261.0
3.7478	436.488479517	1278.0
3.7581	436.857060311	1254.0
3.7683	437.221063993	1276.0
3.7786	437.587630654	1232.0
3.7888	437.949645214	1267.0
3.799	438.310674119	1291.0
3.8093	438.674245057	1304.0
3.8195	439.033301097	1334.0
3.8298	439.394885278	1400.0
3.84	439.751979233	1331.0
3.8502	440.108100929	1307.0
3.8605	440.466730107	1448.0
3.8707	440.820905753	1419.0
3.881	441.177575179	1400.0
3.8912	441.52981541	1387.0
3.9014	441.881096598	1412.0
3.9117	442.234851185	1410.0
3.9219	442.584212775	1373.0
3.9322	442.936034247	1434.0
3.9424	443.283486728	1366.0
3.9526	443.629993201	1478.0
3.9629	443.978939454	1375.0
3.9731	444.323552421	1416.0
3.9834	444.670591834	1423.0
3.9936	445.013321642	1457.0
4.0038	445.355118299	1525.0
4.0141	445.699321575	1430.0
4.0243	446.039250463	1408.0
4.0346	446.381572817	1483.0
4.0448	446.719644143	1468.0
4.055	447.056795002	1427.0
4.0653	447.396319768	1480.0
4.0755	447.731628245	1370.0
4.0858	448.069297656	1425.0
4.096	448.402773818	1455.0
4.1062	448.735342027	1371.0
4.1165	449.070251874	1328.0
4.1267	449.401002742	1323.0
4.137	449.734082453	1331.0
4.1472	450.063025912	1311.0
4.1574	450.391073758	1359.0
4.1677	450.721431415	1249.0
4.1779	451.047686622	1324.0
4.1882	451.376239018	1231.0
4.1984	451.700711383	1255.0
4.2086	452.024300308	1245.0
4.2189	452.350167649	1204.0
4.2291	452.671988302	1220.0
4.2394	452.996074919	1226.0
4.2496	453.316136963	1176.0
4.2598	453.635327575	1260.0
4.2701	453.956765633	1219.0
4.2803	454.274212007	1270.0
4.2906	454.593893546	1185.0
4.3008	454.909605215	1196.0
4.311	455.224457296	1151.0
4.3213	455.541526276	1153.0
4.3315	455.854657828	1138.0
4.3418	456.169994164	1153.0
4.352	456.481414588	1160.0
4.3622	456.79198711	1147.0
4.3725	457.104746397	1082.0
4.3827	457.413621775	1138.0
4.393	457.724671969	1139.0
4.4032	458.031859478	1124.0
4.4134	458.338210608	1132.0
4.4237	458.646718781	1084.0
4.4339	458.951395837	1084.0
4.4442	459.258218147	1063.0
4.4544	459.561230275	1099.0
4.4646	459.863417393	1084.0
4.4749	460.167732235	1073.0
4.4851	460.468268032	1093.0
4.4954	460.770919926	1096.0
4.5056	461.069813426	1076.0
4.5158	461.36789313	1091.0
4.5261	461.668071637	1094.0
4.5363	461.964522465	1098.0
4.5466	462.263060627	1095.0
4.5568	462.557891481	1151.0
4.567	462.8519196	1017.0
4.5773	463.148017995	1139.0
4.5875	463.440439378	1086.0
4.5978	463.734919724	1107.0
4.608	464.025743152	1106.0
4.6182	464.315774757	1083.0
4.6285	464.607848497	1071.0
4.6387	464.896295205	1114.0
4.649	465.18677289	1188.0
4.6592	465.473643362	1089.0
4.6694	465.759732774	1080.0
4.6797	466.047836564	1088.0
4.6899	466.332362622	1080.0
4.7002	466.61889205	1117.0
4.7104	466.901863297	1098.0
4.7206	467.184064099	1096.0
4.7309	467.4682519	1116.0
4.7411	467.748910598	1151.0
4.7514	468.031545436	1171.0
4.7616	468.310670456	1118.0
4.7718	468.589035504	1098.0
4.7821	468.869360542	1124.0
4.7923	469.146204447	1129.0
4.8026	469.424997631	1125.0
4.8128	469.700328704	1093.0
4.823	469.974910135	1145.0
4.8333	470.251424914	1097.0
4.8435	470.524505877	1101.0
4.8538	470.799509624	1071.0
4.864	471.071098318	1060.0
4.8742	471.341947559	1058.0
4.8845	471.614703871	1099.0
4.8947	471.884073038	1112.0
4.905	472.155338856	1164.0
4.9152	472.423236038	1097.0
4.9254	472.690403818	1116.0
4.9357	472.959452748	1157.0
4.9459	473.225160573	1039.0
4.9562	473.492739267	1132.0
4.9664	473.756995114	1106.0
4.9766	474.020531473	1073.0
4.9869	474.285923412	1108.0
4.9971	474.54801966	1119.0
5.0074	474.811961348	1034.0
5.0176	475.072625354	1039.0
5.0278	475.332579651	1095.0
5.0381	475.594364307	1068.0
5.0483	475.852898067	1018.0
5.0586	476.113252184	1083.0
5.0688	476.37037317	1083.0
5.079	476.626794094	1043.0
5.0893	476.885020497	1033.0
5.0995	477.140040192	1033.0
5.1098	477.396855501	1026.0
5.12	477.650481625	1054.0
5.1302	477.903417202	1041.0
5.1405	478.158133718	1032.0
5.1507	478.409687112	1026.0
5.161	478.663011714	981.0
5.1712	478.913190478	1028.0
5.1814	479.162688082	1008.0
5.1917	479.413942418	988.0
5.2019	479.662076627	1005.0
5.2122	479.911957968	993.0
5.2224	480.158736231	983.0
5.2326	480.404842591	997.0
5.2429	480.652681806	979.0
5.2531	480.897443303	944.0
5.2634	481.143928185	997.0
5.2736	481.387352167	1040.0
5.2838	481.63011338	989.0
5.2941	481.874583893	992.0
5.3043	482.116018522	978.0
5.3146	482.35915311	952.0
5.3248	482.599268404	985.0
5.335	482.838729936	1052.0
5.3453	483.079877536	892.0
5.3555	483.318030515	946.0
5.3658	483.557860349	907.0
5.376	483.794711926	935.0
5.3862	484.030918629	878.0
5.3965	484.268788482	954.0
5.4067	484.503704417	924.0
5.417	484.740274415	923.0
5.4272	484.973906638	952.0
5.4374	485.206902751	940.0
5.4477	485.441539408	930.0
5.4579	485.673262299	964.0
5.4682	485.90661677	921.0
5.4784	486.137073396	942.0
5.4886	486.366902559	864.0
5.4989	486.598349968	905.0
5.5091	486.826923215	853.0
5.5194	487.057105864	923.0
5.5296	487.284430058	903.0
5.5398	487.511135317	856.0
5.5501	487.739436826	855.0
5.5603	487.96490324	925.0
5.5706	488.19195718	885.0
5.5808	488.416191519	895.0
5.591	488.639815335	891.0
5.6013	488.865013704	838.0
5.6115	489.087415514	857.0
5.6218	489.311383272	905.0
5.632	489.532569753	892.0
5.6422	489.75315401	926.0
5.6525	489.975291418	880.0
5.6627	490.194670278	885.0
5.673	490.415593803	883.0
5.6832	490.633773853	897.0
5.6934	490.851359866	876.0
5.7037	491.070477919	940.0
5.7139	491.286874919	848.0
5.7242	491.504795587	878.0
5.7344	491.720010072	891.0
5.7446	491.934638593	859.0
5.7549	492.15077833	859.0
5.7651	492.364234	850.0
5.7754	492.579192628	864.0
5.7856	492.791481856	904.0
5.7958	493.003193084	856.0
5.8061	493.216394988	874.0
5.8163	493.426949307	867.0
5.8266	493.638986156	889.0
5.8368	493.848389887	901.0
5.847	494.057223476	894.0
5.8573	494.267527479	839.0
5.8675	494.475219883	874.0
5.8778	494.684374666	858.0
5.888	494.890932122	912.0
5.8982	495.096927184	904.0
5.9085	495.304372675	870.0
5.9187	495.509242064	878.0
5.929	495.715553955	896.0
5.9392	495.919303823	903.0
5.9494	496.122498941	887.0
5.9597	496.327124773	882.0
5.9699	496.529209519	904.0
5.9802	496.73271716	843.0
5.9904	496.933697601	829.0
6.0006	497.134130833	858.0
6.0109	497.335975331	884.0
6.0211	497.535313283	876.0
6.0314	497.73605479	870.0
6.0416	497.934303447	879.0
6.0518	498.132012333	884.0
6.0621	498.331113303	863.0
6.0723	498.527741797	848.0
6.0826	498.725754767	891.0
6.0928	498.921308771	860.0
6.103	499.116330341	880.0
6.1133	499.312725074	914.0
6.1235	499.506680936	875.0
6.1338	499.702002458	857.0
6.144	499.894898436	875.0
6.1542	500.087269217	812.0
6.1645	500.280994496	836.0
6.1747	500.472314055	851.0
6.185	500.66498071	853.0
6.1952	500.85525479	822.0
6.2054	501.045010813	907.0
6.2157	501.236102922	878.0
6.2259	501.42482201	846.0
6.2362	501.614869885	842.0
6.2464	501.802557706	833.0
6.2566	501.989734509	814.0
6.2669	502.17822924	861.0
6.2771	502.364383204	828.0
6.2874	502.551847893	827.0
6.2976	502.736984608	834.0
6.3078	502.921617251	807.0
6.3181	503.107549907	797.0
6.3283	503.291173613	799.0
6.3386	503.476090228	777.0
6.3488	503.658710511	754.0
6.359	503.840833574	761.0
6.3693	504.02423898	759.0
6.3795	504.20536682	775.0
6.3898	504.387769996	793.0
6.4	504.567908051	749.0
6.4102	504.747555645	800.0
6.4205	504.928468153	740.0
6.4307	505.107134051	703.0
6.441	505.28705795	747.0
6.4512	505.464747517	728.0
6.4614	505.64195329	723.0
6.4717	505.820406782	758.0
6.4819	505.996644203	733.0
6.4922	506.174122525	664.0
6.5024	506.349396884	690.0
6.5126	506.524194025	735.0
6.5229	506.700221926	674.0
6.5331	506.874063877	677.0
6.5434	507.049129863	691.0
6.5536	507.222021843	663.0
6.5638	507.394443091	632.0
6.5741	507.56807837	657.0
6.5843	507.739557411	652.0
6.5946	507.91224385	632.0
6.6048	508.082785833	605.0
6.615	508.252863482	631.0
6.6253	508.42413866	634.0
6.6355	508.593286909	606.0
6.6458	508.763626144	548.0
6.656	508.931850071	608.0
6.6662	509.099615976	586.0
6.6765	509.268563133	542.0
6.6867	509.43541227	588.0
6.697	509.603436206	543.0
6.7072	509.769373585	531.0
6.7174	509.934859167	518.0
6.7277	510.101509946	591.0
6.7379	510.266091222	486.0
6.7482	510.431831328	491.0
6.7584	510.595513238	489.0
6.7686	510.758749493	485.0
6.7789	510.923135107	471.0
6.7891	511.085479347	462.0
6.7994	511.248966665	478.0
6.8096	511.410423765	426.0
6.8198	511.571441265	451.0
6.8301	511.733592503	438.0
6.8403	511.893730113	449.0
6.8506	512.054995265	435.0
6.8608	512.214257793	361.0
6.871	512.373086698	438.0
6.8813	512.533033929	406.0
6.8915	512.690994903	389.0
6.9018	512.850068093	348.0
6.912	513.007165879	328.0
6.9222	513.163835935	322.0
6.9325	513.321609118	378.0
6.9427	513.477423041	321.0
6.953	513.634334062	325.0
6.9632	513.78929653	356.0
6.9734	513.943837082	367.0
6.9837	514.099465767	332.0
6.9939	514.253161822	307.0
7.0042	514.407940063	310.0
7.0144	514.560796237	324.0
7.0246	514.71323623	293.0
7.0349	514.866749564	291.0
7.0451	515.018356539	257.0
7.0554	515.17103099	252.0
7.0656	515.321809498	297.0
7.0758	515.472177483	264.0
7.0861	515.62360422	232.0
7.0963	515.773150509	258.0
7.1066	515.923749765	245.0
7.1168	516.072478849	242.0
7.127	516.220802989	248.0
7.1373	516.37017149	228.0
7.1475	516.517685103	196.0
7.1578	516.666237371	219.0
7.168	516.812944887	196.0
7.1782	516.959252962	210.0
7.1885	517.106591204	232.0
7.1987	517.25209977	217.0
7.209	517.398632872	185.0
7.2192	517.543346297	182.0
7.2294	517.687665711	159.0
7.2397	517.833001289	177.0
7.2499	517.976532061	162.0
7.2602	518.121073444	167.0
7.2704	518.263819882	154.0
7.2806	518.406177665	148.0
7.2909	518.549537801	165.0
7.3011	518.69111766	155.0
7.3114	518.833694395	155.0
7.3216	518.974500583	141.0
7.3318	519.114923398	135.0
7.3421	519.256334942	140.0
7.3523	519.395990407	135.0
7.3626	519.536629198	114.0
7.3728	519.675521508	106.0
7.383	519.814035656	122.0
7.3933	519.953525093	126.0
7.4035	520.091282322	101.0
7.4138	520.23000951	119.0
7.424	520.367013955	110.0
7.4342	520.503645379	99.0
7.4445	520.641238836	105.0
7.4547	520.777123629	91.0
7.465	520.913965197	100.0
7.4752	521.049107439	94.0
7.4854	521.183881729	103.0
7.4957	521.319604976	83.0
7.5059	521.453642784	94.0
7.5162	521.588624362	90.0
7.5264	521.721929712	87.0
7.5366	521.854872111	75.0
7.5469	521.988750569	70.0
7.5571	522.120966496	81.0
7.5674	522.254113366	79.0
7.5776	522.385606791	63.0
7.5878	522.5167422	68.0
7.5981	522.648800943	63.0
7.6083	522.779219753	59.0
7.6186	522.910556853	58.0
7.6288	523.040262981	55.0
7.639	523.16961596	51.0
7.6493	523.299879722	66.0
7.6595	523.428525843	52.0
