TL-DOS Lehrstuhlversuch
detector=R1408202
job_number=2015-11-03-008
irradiation_dose [mSv]=0.1

[BEGIN DATA]
time [sec] 	 temperature [K] 	 photoncount 
0.0	250.304823476	0.0
0.0102	250.924334915	0.0
0.0205	251.548783172	0.0
0.0307	252.166045078	0.0
0.041	252.788225874	0.0
0.0512	253.403246415	1.0
0.0614	254.017154774	1.0
0.0717	254.635955299	0.0
0.0819	255.24763447	1.0
0.0922	255.864188043	0.0
0.1024	256.473646121	0.0
0.1126	257.082002075	2.0
0.1229	257.69520595	2.0
0.1331	258.301352878	1.0
0.1434	258.912330122	0.0
0.1536	259.516276045	2.0
0.1638	260.119129814	0.0
0.1741	260.726787655	0.0
0.1843	261.327452376	0.0
0.1946	261.932903726	0.0
0.2048	262.531387349	0.0
0.215	263.128788694	3.0
0.2253	263.730950663	1.0
0.2355	264.32618276	2.0
0.2458	264.926158194	0.0
0.256	265.519228919	0.0
0.2662	266.111227155	2.0
0.2765	266.707942959	0.0
0.2867	267.297791566	0.0
0.297	267.89234061	0.0
0.3072	268.480047393	0.0
0.3174	269.066691388	0.0
0.3277	269.658010283	0.0
0.3379	270.24252409	0.0
0.3482	270.831695822	0.0
0.3584	271.414087178	0.0
0.3686	271.995425357	0.0
0.3789	272.581396154	0.0
0.3891	273.160623412	0.0
0.3994	273.744466467	0.0
0.4096	274.321590469	0.0
0.4198	274.89767082	0.0
0.4301	275.47834189	0.0
0.4403	276.052330411	0.0
0.4506	276.630892983	0.0
0.4608	277.202797271	2.0
0.471	277.773667348	0.0
0.4813	278.349086623	0.0
0.4915	278.91788379	0.0
0.5018	279.491213637	0.0
0.512	280.05794542	0.0
0.5222	280.623652346	0.0
0.5325	281.193867326	0.0
0.5427	281.75752009	0.0
0.553	282.325664539	0.0
0.5632	282.8872706	0.0
0.5734	283.447861072	0.0
0.5837	284.012918826	0.0
0.5939	284.571473714	0.0
0.6042	285.134479664	0.0
0.6144	285.691006361	0.0
0.6246	286.246526655	0.0
0.6349	286.806473826	1.0
0.6451	287.359976947	0.0
0.6554	287.917890872	0.0
0.6656	288.469384144	0.0
0.6758	289.019880116	0.0
0.6861	289.574762927	0.0
0.6963	290.12325997	1.0
0.7066	290.676127924	0.0
0.7168	291.222633296	0.0
0.727	291.768150388	0.0
0.7373	292.318014643	0.0
0.7475	292.861550884	0.0
0.7578	293.409418504	0.0
0.768	293.950981089	0.0
0.7782	294.491564331	2.0
0.7885	295.036455419	0.0
0.7987	295.575075727	0.0
0.809	296.117988238	1.0
0.8192	296.654652739	0.0
0.8294	297.190346755	0.0
0.8397	297.730309655	0.0
0.8499	298.26405849	0.0
0.8602	298.802060709	0.0
0.8704	299.333871427	1.0
0.8806	299.864720436	0.0
0.8909	300.399799721	1.0
0.9011	300.928721143	0.0
0.9114	301.461857479	0.0
0.9216	301.988858312	0.0
0.9318	302.514906136	0.0
0.9421	303.045145974	0.0
0.9523	303.569283644	0.0
0.9626	304.097598106	0.0
0.9728	304.619832558	0.0
0.983	305.141122618	0.0
0.9933	305.66656678	1.0
1.0035	306.185963963	0.0
1.0138	306.709500163	0.0
1.024	307.227011341	0.0
1.0342	307.74358667	0.0
1.0445	308.264278529	0.0
1.0547	308.7789781	0.0
1.065	309.297779254	0.0
1.0752	309.810609878	0.0
1.0854	310.322513116	0.0
1.0957	310.838495654	0.0
1.1059	311.3485401	0.0
1.1162	311.862649032	0.0
1.1264	312.370841435	0.0
1.1366	312.87811484	0.0
1.1469	313.389430649	0.0
1.1571	313.894862072	0.0
1.1674	314.404321222	0.0
1.1776	314.907917352	0.0
1.1878	315.410602797	0.0
1.1981	315.917294085	1.0
1.2083	316.418154208	0.0
1.2186	316.923005628	0.0
1.2288	317.422047058	1.0
1.239	317.920186037	0.0
1.2493	318.42229463	0.0
1.2595	318.918624797	0.0
1.2698	319.418910163	0.0
1.28	319.913438084	0.0
1.2902	320.407071719	0.0
1.3005	320.904639064	1.0
1.3107	321.396480245	1.0
1.321	321.892240853	0.0
1.3312	322.38229609	0.0
1.3414	322.871465127	0.0
1.3517	323.364532297	0.0
1.3619	323.851925093	0.0
1.3722	324.343201866	0.0
1.3824	324.82882487	0.0
1.3926	325.313569689	0.0
1.4029	325.802177385	0.0
1.4131	326.285162028	1.0
1.4234	326.771995521	0.0
1.4336	327.253226378	0.0
1.4438	327.733586994	0.0
1.4541	328.217775549	0.0
1.4643	328.696391908	0.0
1.4746	329.178822306	0.0
1.4848	329.655700742	0.0
1.495	330.131716806	0.0
1.5053	330.611526189	0.0
1.5155	331.085813772	1.0
1.5258	331.563880899	0.0
1.536	332.036446277	0.0
1.5462	332.508157084	0.0
1.5565	332.983626901	0.0
1.5667	333.453624859	1.0
1.577	333.927368178	0.0
1.5872	334.395659508	0.0
1.5974	334.863103995	0.0
1.6077	335.334273495	0.0
1.6179	335.800020626	0.0
1.6282	336.269479242	0.0
1.6384	336.733535179	0.0
1.6486	337.196751934	1.0
1.6589	337.66366001	2.0
1.6691	338.125194759	0.0
1.6794	338.590407426	1.0
1.6896	339.050266277	0.0
1.6998	339.509293535	0.0
1.7101	339.971978729	0.0
1.7203	340.429339194	0.0
1.7306	340.890344313	1.0
1.7408	341.346044038	1.0
1.751	341.800919691	1.0
1.7613	342.259420197	0.0
1.7715	342.712644133	0.0
1.7818	343.169479758	1.0
1.792	343.621057974	1.0
1.8022	344.071819571	0.0
1.8125	344.526173236	1.0
1.8227	344.975298053	2.0
1.833	345.428001896	0.0
1.8432	345.875495878	0.0
1.8534	346.322180628	0.0
1.8637	346.772424958	1.0
1.8739	347.217487732	1.0
1.8842	347.666097161	0.0
1.8944	348.109543849	1.0
1.9046	348.552188624	1.0
1.9149	348.998360784	2.0
1.9251	349.439398253	0.0
1.9354	349.8839503	0.0
1.9456	350.3233863	0.0
1.9558	350.762027638	2.0
1.9661	351.20416446	2.0
1.9763	351.64121303	0.0
1.9866	352.081744391	1.0
1.9968	352.517205976	0.0
2.007	352.951880087	2.0
2.0173	353.390018067	1.0
2.0275	353.823113816	0.0
2.0378	354.259660855	2.0
2.048	354.691183971	1.0
2.0582	355.121926736	0.0
2.0685	355.556102041	2.0
2.0787	355.985280718	1.0
2.089	356.417879472	2.0
2.0992	356.84549974	1.0
2.1094	357.272346715	2.0
2.1197	357.702595185	2.0
2.1299	358.127892219	0.0
2.1402	358.556578396	1.0
2.1504	358.980331116	1.0
2.1606	359.403317536	2.0
2.1709	359.829674686	1.0
2.1811	360.251125183	2.0
2.1914	360.675934171	0.0
2.2016	361.095854321	1.0
2.2118	361.515015102	1.0
2.2221	361.937516128	1.0
2.2323	362.355154877	3.0
2.2426	362.776121742	1.0
2.2528	363.192243986	0.0
2.263	363.607613728	1.0
2.2733	364.026293506	0.0
2.2835	364.440154982	0.0
2.2938	364.857314474	3.0
2.304	365.269673161	1.0
2.3142	365.681286153	1.0
2.3245	366.096179242	3.0
2.3347	366.506297609	0.0
2.345	366.919684163	1.0
2.3552	367.328313332	2.0
2.3654	367.73620355	0.0
2.3757	368.1473442	0.0
2.3859	368.553753311	3.0
2.3962	368.96340105	2.0
2.4064	369.368334433	5.0
2.4166	369.772535548	2.0
2.4269	370.179957696	2.0
2.4371	370.582691099	5.0
2.4474	370.98863384	3.0
2.4576	371.389904861	3.0
2.4678	371.790450238	3.0
2.4781	372.194187516	2.0
2.4883	372.593278457	2.0
2.4986	372.995549707	4.0
2.5088	373.393191492	1.0
2.519	373.790114195	3.0
2.5293	374.19019993	6.0
2.5395	374.585681351	2.0
2.5498	374.984314318	1.0
2.56	375.378359689	2.0
2.5702	375.771692483	1.0
2.5805	376.168159701	2.0
2.5907	376.560064248	4.0
2.601	376.955091838	4.0
2.6112	377.345573324	2.0
2.6214	377.735348676	4.0
2.6317	378.128230105	2.0
2.6419	378.516590128	4.0
2.6522	378.908044948	3.0
2.6624	379.294994782	7.0
2.6726	379.681244868	3.0
2.6829	380.070572938	6.0
2.6931	380.455420496	7.0
2.7034	380.84333486	6.0
2.7136	381.226784983	4.0
2.7238	381.609541687	4.0
2.7341	381.995348536	4.0
2.7443	382.376715396	10.0
2.7546	382.761121326	5.0
2.7648	383.14110339	6.0
2.775	383.520398307	3.0
2.7853	383.902715782	3.0
2.7955	384.280633426	1.0
2.8058	384.661562652	6.0
2.816	385.038108024	2.0
2.8262	385.413972463	5.0
2.8365	385.792832124	1.0
2.8467	386.167331747	4.0
2.857	386.544815715	4.0
2.8672	386.917955477	6.0
2.8774	387.290420466	7.0
2.8877	387.665853586	8.0
2.8979	388.036966102	4.0
2.9082	388.411035971	5.0
2.9184	388.780800925	4.0
2.9286	389.149897208	2.0
2.9389	389.521934779	7.0
2.9491	389.889690821	6.0
2.9594	390.260377471	6.0
2.9696	390.626798139	9.0
2.9798	390.992556186	6.0
2.9901	391.361228916	8.0
3.0003	391.725658844	2.0
3.0106	392.092992872	7.0
3.0208	392.456099502	6.0
3.031	392.818549503	8.0
3.0413	393.183887828	12.0
3.0515	393.545021722	9.0
3.0618	393.909033451	10.0
3.072	394.268856016	11.0
3.0822	394.628027892	13.0
3.0925	394.990061967	11.0
3.1027	395.347929638	12.0
3.113	395.708649116	10.0
3.1232	396.065217319	14.0
3.1334	396.421140717	16.0
3.1437	396.779900428	6.0
3.1539	397.134531418	8.0
3.1642	397.491988421	16.0
3.1744	397.845331695	11.0
3.1846	398.198035996	13.0
3.1949	398.553550957	9.0
3.2051	398.904974539	12.0
3.2154	399.259198575	5.0
3.2256	399.609346087	10.0
3.2358	399.958860405	11.0
3.2461	400.311159964	6.0
3.2563	400.659405146	14.0
3.2666	401.010425454	13.0
3.2768	401.357406109	5.0
3.287	401.703759296	10.0
3.2973	402.052872532	10.0
3.3075	402.397968062	8.0
3.3178	402.745813619	8.0
3.328	403.089656058	6.0
3.3382	403.432876704	13.0
3.3485	403.778832436	17.0
3.3587	404.1208068	11.0
3.369	404.465506319	6.0
3.3792	404.806238925	7.0
3.3894	405.146355362	14.0
3.3997	405.489182149	11.0
3.4099	405.828063575	7.0
3.4202	406.169645509	11.0
3.4304	406.507296409	16.0
3.4406	406.844336713	14.0
3.4509	407.184062853	8.0
3.4611	407.519879316	13.0
3.4714	407.858371862	15.0
3.4816	408.192968928	16.0
3.4918	408.526960921	9.0
3.5021	408.863614457	12.0
3.5123	409.196393677	9.0
3.5226	409.531824777	10.0
3.5328	409.863395629	10.0
3.543	410.194366879	7.0
3.5533	410.527975602	10.0
3.5635	410.857745049	9.0
3.5738	411.190142392	5.0
3.584	411.518714399	12.0
3.5942	411.846692229	12.0
3.6045	412.177283676	10.0
3.6147	412.504070572	8.0
3.625	412.833461595	9.0
3.6352	413.159061881	12.0
3.6454	413.484073363	10.0
3.6557	413.811674825	4.0
3.6659	414.135506144	8.0
3.6762	414.461918038	13.0
3.6864	414.78457348	5.0
3.6966	415.106645443	3.0
3.7069	415.431283961	8.0
3.7171	415.752186436	12.0
3.7274	416.075646145	7.0
3.7376	416.395383377	5.0
3.7478	416.714542408	8.0
3.7581	417.03624478	13.0
3.7683	417.354244899	9.0
3.7786	417.674779124	4.0
3.7888	417.99162454	5.0
3.799	418.307896983	10.0
3.8093	418.626689765	6.0
3.8195	418.941813779	5.0
3.8298	419.259448979	9.0
3.84	419.573428733	4.0
3.8502	419.886840696	11.0
3.8605	420.202750204	2.0
3.8707	420.515024124	6.0
3.881	420.82978652	14.0
3.8912	421.140926529	6.0
3.9014	421.451503884	5.0
3.9117	421.764556194	8.0
3.9219	422.074005798	12.0
3.9322	422.385921372	6.0
3.9424	422.694247321	7.0
3.9526	423.002015704	5.0
3.9629	423.312236658	8.0
3.9731	423.618887491	3.0
3.9834	423.927981989	11.0
3.9936	424.23351933	8.0
4.0038	424.538504147	5.0
4.0141	424.845919353	8.0
4.0243	425.149796727	6.0
4.0346	425.456095666	6.0
4.0448	425.758869618	7.0
4.055	426.061096045	8.0
4.0653	426.365730879	8.0
4.0755	426.666859879	10.0
4.0858	426.970388541	6.0
4.096	427.270424099	8.0
4.1062	427.569917083	7.0
4.1165	427.871796692	9.0
4.1267	428.170202175	8.0
4.137	428.470985616	10.0
4.1472	428.768307546	9.0
4.1574	429.06509181	17.0
4.1677	429.364241113	10.0
4.1779	429.659947711	10.0
4.1882	429.958010761	11.0
4.1984	430.252643606	6.0
4.2086	430.546743647	5.0
4.2189	430.843187339	10.0
4.2291	431.136219461	12.0
4.2394	431.431586724	12.0
4.2496	431.723554805	7.0
4.2598	432.014994902	16.0
4.2701	432.308757452	6.0
4.2803	432.599139288	11.0
4.2906	432.891835144	11.0
4.3008	433.181162563	8.0
4.311	433.469966773	15.0
4.3213	433.76107243	12.0
4.3315	434.04882795	10.0
4.3418	434.338876562	12.0
4.352	434.625587201	11.0
4.3622	434.911779363	12.0
4.3725	435.200252158	12.0
4.3827	435.485405115	10.0
4.393	435.772830425	14.0
4.4032	436.056947952	15.0
4.4134	436.34055169	11.0
4.4237	436.626415435	10.0
4.4339	436.908989369	14.0
4.4442	437.193815102	6.0
4.4544	437.475362969	16.0
4.4646	437.756401695	11.0
4.4749	438.039679987	14.0
4.4851	438.319698222	7.0
4.4954	438.601947891	14.0
4.5056	438.88094934	11.0
4.5158	439.159446252	13.0
4.5261	439.440162475	8.0
4.5363	439.717648126	11.0
4.5466	439.997345028	16.0
4.5568	440.27382309	15.0
4.567	440.549801178	10.0
4.5773	440.827978504	9.0
4.5875	441.102954476	22.0
4.5978	441.380121701	19.0
4.608	441.654099197	9.0
4.6182	441.927581241	10.0
4.6285	442.203242633	15.0
4.6387	442.475731626	11.0
4.649	442.750392052	25.0
4.6592	443.021891599	6.0
4.6694	443.292900175	14.0
4.6797	443.566068388	8.0
4.6899	443.836092893	18.0
4.7002	444.108269194	10.0
4.7104	444.377313202	10.0
4.7206	444.645870681	15.0
4.7309	444.916568264	11.0
4.7411	445.184150572	9.0
4.7514	445.453865214	17.0
4.7616	445.720475893	20.0
4.7718	445.986604443	7.0
4.7821	446.254853741	9.0
4.7923	446.520015941	16.0
4.8026	446.787291188	15.0
4.8128	447.051490546	11.0
4.823	447.315212135	8.0
4.8333	447.581035291	12.0
4.8435	447.84379927	7.0
4.8538	448.108657185	13.0
4.864	448.370467031	15.0
4.8742	448.631803429	12.0
4.8845	448.895222386	11.0
4.8947	449.155609835	9.0
4.905	449.418072281	12.0
4.9152	449.677514226	8.0
4.9254	449.936487005	15.0
4.9357	450.197523509	7.0
4.9459	450.455555921	9.0
4.9562	450.715644564	10.0
4.9664	450.972740024	11.0
4.9766	451.229370562	16.0
4.9869	451.488046159	8.0
4.9971	451.743744835	8.0
5.0074	452.001481144	5.0
5.0176	452.256251342	6.0
5.0278	452.510560822	11.0
5.0381	452.766896866	8.0
5.0483	453.020282912	9.0
5.0586	453.275688163	11.0
5.0688	453.528154129	8.0
5.079	453.780163545	8.0
5.0893	454.034181194	9.0
5.0995	454.285275528	8.0
5.1098	454.538370803	9.0
5.12	454.788553378	8.0
5.1302	455.038283531	7.0
5.1405	455.290003755	11.0
5.1507	455.538827103	12.0
5.161	455.789633295	4.0
5.1712	456.03755313	9.0
5.1814	456.285024635	12.0
5.1917	456.534468213	10.0
5.2019	456.781041114	7.0
5.2122	457.029578926	5.0
5.2224	457.275256486	15.0
5.2326	457.520489772	13.0
5.2429	457.767677293	9.0
5.2531	458.012020102	10.0
5.2634	458.25831005	13.0
5.2736	458.501765616	4.0
5.2838	458.744780925	9.0
5.2941	458.989732795	10.0
5.3043	459.23186568	9.0
5.3146	459.475928096	12.0
5.3248	459.717181763	8.0
5.335	459.957999155	9.0
5.3453	460.200735594	7.0
5.3555	460.440678544	9.0
5.3658	460.682533573	10.0
5.376	460.921605256	5.0
5.3862	461.160244611	10.0
5.3965	461.400785655	5.0
5.4067	461.638558477	13.0
5.417	461.878226083	11.0
5.4272	462.115135518	6.0
5.4374	462.351616533	3.0
5.4477	462.58998204	4.0
5.4579	462.82560436	8.0
5.4682	463.063104327	14.0
5.4784	463.297871069	10.0
5.4886	463.532213267	11.0
5.4989	463.768422911	6.0
5.5091	464.00191418	6.0
5.5194	464.237266113	9.0
5.5296	464.469909542	9.0
5.5398	464.702132266	4.0
5.5501	464.936205547	11.0
5.5603	465.167585037	4.0
5.5706	465.400808365	11.0
5.5808	465.631347684	9.0
5.591	465.861470104	9.0
5.6013	466.093426343	12.0
5.6115	466.322713156	9.0
5.6218	466.553827129	14.0
5.632	466.782281369	8.0
5.6422	467.01032248	13.0
5.6525	467.240180825	6.0
5.6627	467.467393886	17.0
5.673	467.696417583	13.0
5.6832	467.922805602	10.0
5.6934	468.148784229	12.0
5.7037	468.376563654	6.0
5.7139	468.60172172	13.0
5.7242	468.828674045	9.0
5.7344	469.053014531	5.0
5.7446	469.276949327	7.0
5.7549	469.502668634	7.0
5.7651	469.725790291	12.0
5.7754	469.95068998	11.0
5.7856	470.17300145	6.0
5.7958	470.394910901	8.0
5.8061	470.618588723	9.0
5.8163	470.839692389	5.0
5.8266	471.062558005	7.0
5.8368	471.282858812	10.0
5.847	471.502761235	13.0
5.8573	471.724416035	10.0
5.8675	471.943519962	11.0
5.8778	472.164369902	5.0
5.888	472.382678231	10.0
5.8982	472.600591779	11.0
5.9085	472.820241855	12.0
5.9187	473.037364127	11.0
5.929	473.256216623	6.0
5.9392	473.472550494	10.0
5.9494	473.688493155	11.0
5.9597	473.906156638	13.0
5.9699	474.12131518	8.0
5.9802	474.338188296	2.0
5.9904	474.552565567	12.0
6.0006	474.766555166	8.0
6.0109	474.982250023	9.0
6.0211	475.195462595	6.0
6.0314	475.410374234	6.0
6.0416	475.622812601	8.0
6.0518	475.834866802	8.0
6.0621	476.048610839	6.0
6.0723	476.259895042	5.0
6.0826	476.472862944	8.0
6.0928	476.683379943	3.0
6.103	476.893516251	11.0
6.1133	477.105327111	6.0
6.1235	477.314700384	9.0
6.1338	477.525742129	7.0
6.144	477.734355139	11.0
6.1542	477.942590899	5.0
6.1645	478.152486067	4.0
6.1747	478.359965695	10.0
6.185	478.569098703	13.0
6.1952	478.775824943	5.0
6.2054	478.982177346	2.0
6.2157	479.190174147	4.0
6.2259	479.395777255	6.0
6.2362	479.603018791	11.0
6.2464	479.807875326	5.0
6.2566	480.012361404	7.0
6.2669	480.218477009	12.0
6.2771	480.42222057	6.0
6.2874	480.62758774	5.0
6.2976	480.83059148	14.0
6.3078	481.033228114	9.0
6.3181	481.237479536	6.0
6.3283	481.439380369	6.0
6.3386	481.642890125	9.0
6.3488	481.844057827	7.0
6.359	482.044861744	5.0
6.3693	482.247265844	6.0
6.3795	482.447340614	4.0
6.3898	482.649009756	10.0
6.4	482.848358026	10.0
6.4102	483.047345801	10.0
6.4205	483.247919288	5.0
6.4307	483.44618451	5.0
6.441	483.646029686	7.0
6.4512	483.843574979	7.0
6.4614	484.040763038	4.0
6.4717	484.239522467	13.0
6.4819	484.435994509	7.0
6.4922	484.634032214	7.0
6.5024	484.829790838	2.0
6.5126	485.025195459	7.0
6.5229	485.222157237	6.0
6.5331	485.416852316	7.0
6.5434	485.613098898	10.0
6.5536	485.807087012	5.0
6.5638	486.000724324	9.0
6.5741	486.19590471	15.0
6.5843	486.388838898	5.0
6.5946	486.583310556	7.0
6.6048	486.775544173	7.0
6.615	486.967430161	11.0
6.6253	487.160845267	4.0
6.6355	487.352034489	9.0
6.6458	487.544747277	7.0
6.656	487.735242265	8.0
6.6662	487.925392768	5.0
6.6765	488.117058559	4.0
6.6867	488.306518599	6.0
6.697	488.497488425	10.0
6.7072	488.686260508	9.0
6.7174	488.874691223	4.0
6.7277	489.064623521	6.0
6.7379	489.252370017	8.0
6.7482	489.441612644	3.0
6.7584	489.628677406	6.0
6.7686	489.815403887	6.0
6.7789	490.00361837	8.0
6.7891	490.18966682	9.0
6.7994	490.37719787	3.0
6.8096	490.562570752	9.0
6.8198	490.747608413	6.0
6.8301	490.934120617	10.0
6.8403	491.11848638	7.0
6.8506	491.304321332	5.0
6.8608	491.488017636	5.0
6.871	491.671381751	10.0
6.8813	491.856207073	9.0
6.8915	492.038905366	12.0
6.9018	492.223059562	8.0
6.912	492.405094452	4.0
6.9222	492.586800156	5.0
6.9325	492.769953853	8.0
6.9427	492.950999758	3.0
6.953	493.133488398	7.0
6.9632	493.3138769	2.0
6.9734	493.493939194	11.0
6.9837	493.675436383	8.0
6.9939	493.854844846	4.0
7.0042	494.035682993	3.0
7.0144	494.214439998	5.0
7.0246	494.392873745	4.0
7.0349	494.57272941	6.0
7.0451	494.750515238	7.0
7.0554	494.929717822	7.0
7.0656	495.106858085	4.0
7.0758	495.283678014	4.0
7.0861	495.461907001	9.0
7.0963	495.638084871	6.0
7.1066	495.815666683	2.0
7.1168	495.991204827	2.0
7.127	496.166425534	3.0
7.1373	496.343042555	10.0
7.1475	496.51762701	5.0
7.1578	496.69360271	4.0
7.168	496.867553224	7.0
7.1782	497.041189173	8.0
7.1885	497.216208807	7.0
7.1987	497.389214259	10.0
7.209	497.563598372	3.0
7.2192	497.735975617	2.0
7.2294	497.908041141	4.0
7.2397	498.081477835	7.0
7.2499	498.252918565	5.0
7.2602	498.425725486	9.0
7.2704	498.59654369	10.0
7.2806	498.767052992	7.0
7.2909	498.938921064	5.0
7.3011	499.108811223	10.0
7.3114	499.280055217	4.0
7.3216	499.449328481	3.0
7.3318	499.618295637	10.0
7.3421	499.788609273	8.0
7.3523	499.956962885	10.0
7.3626	500.126658088	9.0
7.3728	500.294400385	7.0
7.383	500.461839342	3.0
7.3933	500.630612601	7.0
7.4035	500.797443564	10.0
7.4138	500.965603984	1.0
7.424	501.131829159	6.0
7.4342	501.297753739	8.0
7.4445	501.465000554	7.0
7.4547	501.630322638	7.0
7.465	501.796962155	7.0
7.4752	501.961683932	5.0
7.4854	502.126107831	4.0
7.4957	502.291842006	5.0
7.5059	502.455668859	8.0
7.5162	502.62080123	13.0
7.5264	502.784033204	8.0
7.5366	502.946969996	9.0
7.5469	503.111205212	5.0
7.5571	503.273550357	9.0
7.5674	503.437189212	6.0
7.5776	503.598944859	5.0
7.5878	503.760407992	5.0
7.5981	503.923157807	5.0
7.6083	504.084034645	4.0
7.6186	504.246193493	4.0
7.6288	504.406486164	0.0
7.639	504.566488968	4.0
7.6493	504.727766816	6.0
7.6595	504.887188627	3.0
7.6698	505.047880852	6.0
7.68	505.20672378	4.0
7.6902	505.365279462	3.0
7.7005	505.525098656	5.0
7.7107	505.6830786	2.0
7.721	505.842317468	5.0
7.7312	505.999723764	5.0
7.7414	506.156845413	5.0
7.7517	506.315219145	6.0
7.7619	506.471770263	7.0
7.7722	506.629568918	6.0
7.7824	506.785551576	5.0
7.7926	506.941252161	10.0
7.8029	507.098193505	4.0
7.8131	507.253328719	4.0
7.8234	507.409700187	5.0
7.8336	507.564272083	3.0
7.8438	507.718564456	6.0
7.8541	507.874086368	4.0
7.8643	508.027818484	6.0
7.8746	508.182775674	3.0
7.8848	508.335949566	2.0
7.895	508.488846465	4.0
7.9053	508.642961781	6.0
7.9155	508.79530349	2.0
7.9258	508.948859192	4.0
7.936	509.100647725	7.0
7.9462	509.25216177	5.0
7.9565	509.404883213	3.0
7.9667	509.555847089	4.0
7.977	509.708013979	3.0
7.9872	509.858429684	2.0
7.9974	510.008573382	4.0
8.0077	510.159913558	5.0
8.0179	510.309512064	4.0
8.0282	510.460302702	5.0
8.0384	510.609357994	6.0
8.0486	510.75814374	3.0
8.0589	510.908115142	1.0
8.0691	511.056360625	7.0
8.0794	511.20578746	2.0
8.0896	511.353494643	4.0
8.0998	511.500934718	4.0
8.1101	511.649549726	2.0
8.1203	511.796454425	4.0
