TL-DOS Lehrstuhlversuch
detector=R1408305
job_number=2015-10-23-002
irradiation_dose [mSv]=4.0

[BEGIN DATA]
time [sec] 	 temperature [K] 	 photoncount 
0.0	96.1060132231	0.0
0.0102	98.2473374472	0.0
0.0205	100.399332116	1.0
0.0307	102.52025965	3.0
0.041	104.651755991	4.0
0.0512	106.752481119	2.0
0.0614	108.843226127	2.0
0.0717	110.944389538	3.0
0.0819	113.015219637	2.0
0.0922	115.0963689	1.0
0.1024	117.147473785	2.0
0.1126	119.188834284	2.0
0.1229	121.240367099	1.0
0.1331	123.26228309	1.0
0.1434	125.294274502	4.0
0.1536	127.296931199	0.0
0.1638	129.290073678	3.0
0.1741	131.293148198	3.0
0.1843	133.267305458	1.0
0.1946	135.251300153	1.0
0.2048	137.206653035	1.0
0.215	139.152716429	1.0
0.2253	141.108477264	1.0
0.2355	143.036003881	0.0
0.2458	144.973135567	2.0
0.256	146.882301974	0.0
0.2662	148.782398317	0.0
0.2765	150.691963041	1.0
0.2867	152.573960455	0.0
0.297	154.465336061	0.0
0.3072	156.329406942	0.0
0.3174	158.184622	0.0
0.3277	160.049081791	0.0
0.3379	161.886625425	0.0
0.3482	163.733325734	0.0
0.3584	165.553366271	1.0
0.3686	167.364760163	0.0
0.3789	169.185180422	0.0
0.3891	170.979320299	0.0
0.3994	172.782400565	0.0
0.4096	174.559450777	0.0
0.4198	176.328058583	0.0
0.4301	178.105479548	0.0
0.4403	179.857240888	0.0
0.4506	181.61773144	0.0
0.4608	183.352806781	0.0
0.471	185.079639131	0.0
0.4813	186.815076468	0.0
0.4915	188.525460274	0.0
0.5018	190.244367103	1.0
0.512	191.938459043	1.0
0.5222	193.624502694	0.0
0.5325	195.318948079	0.0
0.5427	196.988931711	0.0
0.553	198.667237047	0.0
0.5632	200.321313635	0.0
0.5734	201.967532039	0.0
0.5837	203.621953724	0.0
0.5939	205.252491454	1.0
0.6042	206.891154327	0.0
0.6144	208.506160746	0.0
0.6246	210.113494597	0.0
0.6349	211.728837962	0.0
0.6451	213.320861525	0.0
0.6554	214.920818309	0.0
0.6656	216.497677419	0.0
0.6758	218.067045189	0.0
0.6861	219.644233286	1.0
0.6963	221.198652406	0.0
0.7066	222.76081736	0.0
0.7168	224.30043022	1.0
0.727	225.83272869	0.0
0.7373	227.372662765	0.0
0.7475	228.890365679	0.0
0.7578	230.415631467	0.0
0.768	231.918877853	0.0
0.7782	233.414982618	0.0
0.7885	234.918542632	0.0
0.7987	236.400396597	0.0
0.809	237.889634797	0.0
0.8192	239.357373703	0.0
0.8294	240.818139679	0.0
0.8397	242.286184807	0.0
0.8499	243.733036593	1.0
0.8602	245.187098195	0.0
0.8704	246.620168329	0.0
0.8806	248.046430236	1.0
0.8909	249.479799357	0.0
0.9011	250.892475735	0.0
0.9114	252.31219163	0.0
0.9216	253.711411885	1.0
0.9318	255.103984728	0.0
0.9421	256.503496908	1.0
0.9523	257.88280512	1.0
0.9626	259.26898657	0.0
0.9728	260.635156499	0.0
0.983	261.994836032	0.0
0.9933	263.361290991	0.0
1.0035	264.708019209	0.0
1.0138	266.061458317	1.0
1.024	267.395358586	1.0
1.0342	268.722921765	0.0
1.0445	270.057100332	2.0
1.0547	271.372018114	0.0
1.065	272.693488271	2.0
1.0752	273.995881107	0.0
1.0854	275.292086538	2.0
1.0957	276.594751098	0.0
1.1059	277.878609823	1.0
1.1162	279.168866152	1.0
1.1264	280.440495778	0.0
1.1366	281.706084147	0.0
1.1469	282.977979078	1.0
1.1571	284.231512378	1.0
1.1674	285.491292167	1.0
1.1776	286.732885224	1.0
1.1878	287.968579724	0.0
1.1981	289.210431821	2.0
1.2083	290.434355998	0.0
1.2186	291.664379119	1.0
1.2288	292.876645088	3.0
1.239	294.083151827	2.0
1.2493	295.295670717	2.0
1.2595	296.490685155	1.0
1.2698	297.691654476	2.0
1.28	298.875286079	0.0
1.2902	300.053294487	3.0
1.3005	301.237173037	0.0
1.3107	302.403960598	4.0
1.321	303.576562385	2.0
1.3312	304.732235981	6.0
1.3414	305.882419205	4.0
1.3517	307.038333914	5.0
1.3619	308.177561333	3.0
1.3722	309.322465642	1.0
1.3824	310.450841613	2.0
1.3926	311.573856898	7.0
1.4029	312.702468287	6.0
1.4131	313.814786549	6.0
1.4234	314.932647611	6.0
1.4336	316.034370742	4.0
1.4438	317.130859809	2.0
1.4541	318.232812797	10.0
1.4643	319.31885751	4.0
1.4746	320.410314099	3.0
1.4848	321.486013944	7.0
1.495	322.556603357	7.0
1.5053	323.63252763	5.0
1.5155	324.69291939	8.0
1.5258	325.758595194	7.0
1.536	326.808886437	11.0
1.5462	327.854187959	11.0
1.5565	328.904698328	12.0
1.5667	329.940043071	14.0
1.577	330.980547047	14.0
1.5872	332.006029852	10.0
1.5974	333.026640796	18.0
1.6077	334.052337553	14.0
1.6179	335.063226903	12.0
1.6282	336.079153621	15.0
1.6384	337.080413978	13.0
1.6486	338.076917549	21.0
1.6589	339.078386803	18.0
1.6691	340.065398409	17.0
1.6794	341.057328399	21.0
1.6896	342.034938454	24.0
1.6998	343.007904081	28.0
1.7101	343.985718099	32.0
1.7203	344.949415966	33.0
1.7306	345.917916042	23.0
1.7408	346.872434428	52.0
1.751	347.82241809	37.0
1.7613	348.777135621	32.0
1.7715	349.718070433	53.0
1.7818	350.663694022	52.0
1.792	351.595666176	48.0
1.8022	352.523210719	44.0
1.8125	353.455377315	49.0
1.8227	354.374086746	58.0
1.833	355.297374204	68.0
1.8432	356.20733268	76.0
1.8534	357.112968128	97.0
1.8637	358.023116453	52.0
1.8739	358.92012548	80.0
1.8842	359.821604397	80.0
1.8944	360.710069171	101.0
1.9046	361.594313028	106.0
1.9149	362.482963166	99.0
1.9251	363.358784362	113.0
1.9354	364.238969868	123.0
1.9456	365.106448632	128.0
1.9558	365.969806179	125.0
1.9661	366.837465929	131.0
1.9763	367.692599763	139.0
1.9866	368.55199482	171.0
1.9968	369.398983274	165.0
2.007	370.241947857	169.0
2.0173	371.089113022	171.0
2.0275	371.92404814	215.0
2.0378	372.763143829	205.0
2.048	373.590125966	244.0
2.0582	374.413179278	223.0
2.0685	375.240333951	243.0
2.0787	376.055547458	240.0
2.089	376.874823261	279.0
2.0992	377.68227164	279.0
2.1094	378.485883995	292.0
2.1197	379.293500836	299.0
2.1299	380.089458567	336.0
2.1402	380.889382639	348.0
2.1504	381.677758658	364.0
2.1606	382.462389263	390.0
2.1709	383.250929764	410.0
2.1811	384.02808655	443.0
2.1914	384.809115991	450.0
2.2016	385.57887015	452.0
2.2118	386.344967362	405.0
2.2221	387.114882118	470.0
2.2323	387.873682048	503.0
2.2426	388.636263158	511.0
2.2528	389.387835315	542.0
2.263	390.135836904	609.0
2.2733	390.887565864	632.0
2.2835	391.628442536	637.0
2.2938	392.373011075	606.0
2.304	393.106830698	693.0
2.3142	393.837164092	641.0
2.3245	394.571136814	694.0
2.3347	395.294513586	758.0
2.345	396.02149502	691.0
2.3552	396.737981433	728.0
2.3654	397.451063964	688.0
2.3757	398.167699861	767.0
2.3859	398.873990089	766.0
2.3962	399.583799835	759.0
2.4064	400.283362459	792.0
2.4166	400.979601601	776.0
2.4269	401.679310177	817.0
2.4371	402.368917454	779.0
2.4474	403.061961117	845.0
2.4576	403.7449997	817.0
2.4678	404.424793304	772.0
2.4781	405.107974391	763.0
2.4883	405.781292778	779.0
2.4986	406.457966382	805.0
2.5088	407.124871229	764.0
2.519	407.788607747	758.0
2.5293	408.455651734	756.0
2.5395	409.113065983	721.0
2.5498	409.773756196	717.0
2.56	410.424908397	725.0
2.5702	411.072967106	750.0
2.5805	411.724255159	673.0
2.5907	412.366140934	614.0
2.601	413.011225293	651.0
2.6112	413.646996933	594.0
2.6214	414.279748151	644.0
2.6317	414.915652434	605.0
2.6419	415.542376526	555.0
2.6522	416.17222365	543.0
2.6624	416.792978026	532.0
2.6726	417.410783323	470.0
2.6829	418.031667209	466.0
2.6931	418.643587745	450.0
2.7034	419.258557545	403.0
2.7136	419.864649372	435.0
2.7238	420.46786178	412.0
2.7341	421.074080059	429.0
2.7443	421.671546706	386.0
2.7546	422.271990593	378.0
2.7648	422.863766209	413.0
2.775	423.45273042	390.0
2.7853	424.044629501	406.0
2.7955	424.627983668	408.0
2.8058	425.214244751	409.0
2.816	425.792042313	367.0
2.8262	426.367094875	404.0
2.8365	426.945012986	420.0
2.8467	427.514588017	359.0
2.857	428.087001302	383.0
2.8672	428.651150978	406.0
2.8774	429.212620494	431.0
2.8877	429.776887871	458.0
2.8979	430.333009238	429.0
2.9082	430.891901816	434.0
2.9184	431.442725978	462.0
2.9286	431.990933285	499.0
2.9389	432.541872366	457.0
2.9491	433.084857851	542.0
2.9594	433.63054909	505.0
2.9696	434.168362492	554.0
2.9798	434.703620851	552.0
2.9901	435.241546459	574.0
3.0003	435.771706338	588.0
3.0106	436.304508059	610.0
3.0208	436.829618023	562.0
3.031	437.352233295	587.0
3.0413	437.877452814	597.0
3.0515	438.395090035	671.0
3.0618	438.915306697	639.0
3.072	439.428013284	611.0
3.0822	439.938284105	631.0
3.0925	440.45109766	679.0
3.1027	440.956508015	725.0
3.113	441.464436883	741.0
3.1232	441.965033067	692.0
3.1334	442.463251021	742.0
3.1437	442.963951647	698.0
3.1539	443.457423941	660.0
3.1642	443.953355259	753.0
3.1744	444.442127096	757.0
3.1846	444.928576876	729.0
3.1949	445.417450688	723.0
3.2051	445.899266903	757.0
3.2154	446.38348406	769.0
3.2256	446.860710846	720.0
3.2358	447.335670425	800.0
3.2461	447.812996777	764.0
3.2563	448.283432237	766.0
3.2666	448.756211927	718.0
3.2768	449.222166363	789.0
3.287	449.685907144	719.0
3.2973	450.151958794	770.0
3.3075	450.611282319	834.0
3.3178	451.072894702	744.0
3.328	451.527843046	749.0
3.3382	451.980630023	702.0
3.3485	452.435673285	711.0
3.3587	452.884147344	709.0
3.369	453.334856197	705.0
3.3792	453.77905842	747.0
3.3894	454.221150328	727.0
3.3997	454.665445227	693.0
3.4099	455.10332609	745.0
3.4202	455.54338896	729.0
3.4304	455.97709889	737.0
3.4406	456.408748353	712.0
3.4509	456.84254877	668.0
3.4611	457.270086654	666.0
3.4714	457.699755005	701.0
3.4816	458.123220477	679.0
3.4918	458.544674149	676.0
3.5021	458.96822797	609.0
3.5123	459.385667182	657.0
3.5226	459.805186539	638.0
3.5328	460.21864953	662.0
3.543	460.630148243	615.0
3.5533	461.043697497	627.0
3.5635	461.451276574	595.0
3.5738	461.86088666	622.0
3.584	462.264583436	576.0
3.5942	462.666362331	604.0
3.6045	463.070143332	618.0
3.6147	463.468095174	604.0
3.625	463.868030052	647.0
3.6352	464.262191296	614.0
3.6454	464.654479959	629.0
3.6557	465.048723438	621.0
3.6659	465.437275446	604.0
3.6762	465.82776365	628.0
3.6864	466.212614596	580.0
3.6966	466.595637193	603.0
3.7069	466.980568431	633.0
3.7171	467.359942635	593.0
3.7274	467.741207299	641.0
3.7376	468.116967861	590.0
3.7478	468.490943261	595.0
3.7581	468.866782219	639.0
3.7683	469.237195402	590.0
3.7786	469.609454393	590.0
3.7888	469.97633929	613.0
3.799	470.341481192	622.0
3.8093	470.708442634	590.0
3.8195	471.070106461	631.0
3.8298	471.433572497	631.0
3.84	471.791791378	570.0
3.8502	472.148308434	624.0
3.8605	472.506602052	580.0
3.8707	472.859723187	622.0
3.881	473.214603961	579.0
3.8912	473.564361522	629.0
3.9014	473.912457456	584.0
3.9117	474.262287988	630.0
3.9219	474.607068214	604.0
3.9322	474.953566516	571.0
3.9424	475.295062618	616.0
3.9526	475.63493634	581.0
3.9629	475.976503689	565.0
3.9731	476.313140023	629.0
3.9834	476.651453851	563.0
3.9936	476.984883634	601.0
4.0038	477.316729358	561.0
4.0141	477.650228705	605.0
4.0243	477.97891351	611.0
4.0346	478.309236185	595.0
4.0448	478.634790179	599.0
4.055	478.958797531	556.0
4.0653	479.284419446	579.0
4.0755	479.605340541	552.0
4.0858	479.92786082	548.0
4.096	480.245725055	581.0
4.1062	480.562079181	569.0
4.1165	480.880009733	555.0
4.1267	481.193350501	589.0
4.137	481.50825268	533.0
4.1472	481.818608792	568.0
4.1574	482.127490466	520.0
4.1677	482.43791133	554.0
4.1779	482.743850822	612.0
4.1882	483.051314844	546.0
4.1984	483.35434018	563.0
4.2086	483.655925905	557.0
4.2189	483.959014463	555.0
4.2291	484.257727502	564.0
4.2394	484.55792906	532.0
4.2496	484.853796777	525.0
4.2598	485.148258886	558.0
4.2701	485.444188331	526.0
4.2803	485.73584561	513.0
4.2906	486.028956247	549.0
4.3008	486.317835411	569.0
4.311	486.605342169	524.0
4.3213	486.894281604	521.0
4.3315	487.179049782	556.0
4.3418	487.46523699	539.0
4.352	487.747292675	500.0
4.3622	488.028008371	508.0
4.3725	488.310122902	540.0
4.3827	488.588164705	520.0
4.393	488.867592019	552.0
4.4032	489.142985399	526.0
4.4134	489.41707044	525.0
4.4237	489.692521277	550.0
4.4339	489.963995584	509.0
4.4442	490.236822677	540.0
4.4544	490.505711119	492.0
4.4646	490.773322126	532.0
4.4749	491.042266667	538.0
4.4851	491.307328607	554.0
4.4954	491.573711379	496.0
4.5056	491.836248533	556.0
4.5158	492.097538426	536.0
4.5261	492.360130354	529.0
4.5363	492.61893139	502.0
4.5466	492.879022059	473.0
4.5568	493.135357946	539.0
4.567	493.390476032	522.0
4.5773	493.6468654	545.0
4.5875	493.899553418	534.0
4.5978	494.153500607	562.0
4.608	494.403781704	566.0
4.6182	494.652873766	540.0
4.6285	494.90320708	558.0
4.6387	495.149926473	526.0
4.649	495.397875295	557.0
4.6592	495.642244619	553.0
4.6694	495.885452994	506.0
4.6797	496.129873302	567.0
4.6899	496.370765052	538.0
4.7002	496.612857191	512.0
4.7104	496.851454382	473.0
4.7206	497.088918046	526.0
4.7309	497.327565016	585.0
4.7411	497.562766775	539.0
4.7514	497.799140569	485.0
4.7616	498.032101967	520.0
4.7718	498.263956613	507.0
4.7821	498.496966615	528.0
4.7923	498.726612783	583.0
4.8026	498.957403303	505.0
4.8128	499.184862029	507.0
4.823	499.411240145	521.0
4.8333	499.638746327	523.0
4.8435	499.862968131	560.0
4.8538	500.088307255	520.0
4.864	500.310393286	559.0
4.8742	500.53142423	516.0
4.8845	500.753556595	500.0
4.8947	500.972482161	534.0
4.905	501.192498655	492.0
4.9152	501.409338896	484.0
4.9254	501.625148972	514.0
4.9357	501.842034453	482.0
4.9459	502.05578888	494.0
4.9562	502.270608468	531.0
4.9664	502.482326827	488.0
4.9766	502.693039354	472.0
4.9869	502.904801884	487.0
4.9971	503.113507318	456.0
5.0074	503.323252754	422.0
5.0176	503.529970212	433.0
5.0278	503.735705598	431.0
5.0381	503.942466185	375.0
5.0483	504.146241885	416.0
5.0586	504.351033022	433.0
5.0688	504.552867704	448.0
5.079	504.753743511	453.0
5.0893	504.955620302	386.0
5.0995	505.154582713	424.0
5.1098	505.354536574	386.0
5.12	505.551603814	362.0
5.1302	505.747734827	387.0
5.1405	505.944843182	376.0
5.1507	506.139105994	369.0
5.161	506.334336839	353.0
5.1712	506.526749245	355.0
5.1814	506.71824754	348.0
5.1917	506.910700091	320.0
5.2019	507.100374312	304.0
5.2122	507.2909937	282.0
5.2224	507.478861224	303.0
5.2326	507.665836227	288.0
5.2429	507.853742946	317.0
5.2531	508.038936962	285.0
5.2634	508.225053819	276.0
5.2736	508.408483811	268.0
5.2838	508.591042365	275.0
5.2941	508.774510628	254.0
5.3043	508.955330263	256.0
5.3146	509.13705094	217.0
5.3248	509.316148219	227.0
5.335	509.494394643	212.0
5.3453	509.673529288	234.0
5.3555	509.850077867	178.0
5.3658	510.027506206	197.0
5.376	510.202373111	206.0
5.3862	510.37640926	172.0
5.3965	510.551312649	173.0
5.4067	510.723691057	168.0
5.417	510.896928444	142.0
5.4272	511.067664901	160.0
5.4374	511.237590223	184.0
5.4477	511.408362301	154.0
5.4579	511.576669039	140.0
5.4682	511.745814467	139.0
5.4784	511.912518038	123.0
5.4886	512.078429634	127.0
5.4989	512.245167985	127.0
5.5091	512.409499228	108.0
5.5194	512.574649351	95.0
5.5296	512.737415295	106.0
5.5398	512.899407971	92.0
5.5501	513.062207873	85.0
5.5603	513.222657525	96.0
5.5706	513.383906715	93.0
5.5808	513.542828041	84.0
5.591	513.700994363	81.0
5.6013	513.859948845	63.0
5.6115	514.016608591	84.0
5.6218	514.174048989	69.0
5.632	514.329216509	68.0
5.6422	514.483646859	64.0
5.6525	514.638846752	76.0
5.6627	514.791806111	65.0
5.673	514.945527683	60.0
5.6832	515.097030064	52.0
5.6934	515.247812687	60.0
5.7037	515.399346676	45.0
5.7139	515.548693054	39.0
5.7242	515.698783641	40.0
5.7344	515.846707454	56.0
5.7446	515.993928512	41.0
5.7549	516.141883187	35.0
5.7651	516.287701925	24.0
5.7754	516.434247292	19.0
5.7856	516.578677066	37.0
5.7958	516.722420684	34.0
5.8061	516.866880592	31.0
5.8163	517.009255013	34.0
5.8266	517.152338901	32.0
5.8368	517.293357167	26.0
5.847	517.433705485	20.0
5.8573	517.574753172	25.0
5.8675	517.713764634	24.0
5.8778	517.853468804	20.0
5.888	517.991156144	29.0
5.8982	518.12818936	14.0
5.9085	518.265905426	15.0
5.9187	518.401633363	18.0
5.929	518.538037647	21.0
5.9392	518.672472739	22.0
5.9494	518.806269157	17.0
5.9597	518.940732296	14.0
5.9699	519.073254267	19.0
5.9802	519.206436609	22.0
5.9904	519.337696273	13.0
6.0006	519.468332348	14.0
6.0109	519.599619397	11.0
6.0211	519.729011129	11.0
6.0314	519.859047633	11.0
6.0416	519.987206874	10.0
6.0518	520.114757256	13.0
6.0621	520.242943235	10.0
6.0723	520.369278665	12.0
6.0826	520.496243638	13.0
6.0928	520.621375689	12.0
6.103	520.745913263	12.0
6.1133	520.871071421	8.0
6.1235	520.994422741	13.0
6.1338	521.118388734	7.0
6.144	521.2405651	10.0
6.1542	521.36216103	3.0
6.1645	521.484362886	9.0
6.1747	521.604800583	9.0
6.185	521.725838433	7.0
6.1952	521.845128928	6.0
6.2054	521.963852698	4.0
6.2157	522.083168081	5.0
6.2259	522.200760975	5.0
6.2362	522.318939847	6.0
6.2464	522.435412637	3.0
6.2566	522.551332088	10.0
6.2669	522.667829178	4.0
6.2771	522.782644466	5.0
6.2874	522.89803189	7.0
6.2976	523.01175353	3.0
6.3078	523.124934903	7.0
6.3181	523.23868027	3.0
6.3283	523.350783559	5.0
6.3386	523.463445471	8.0
6.3488	523.574480946	0.0
6.359	523.684988914	5.0
6.3693	523.796047555	6.0
6.3795	523.905502905	5.0
6.3898	524.015503683	2.0
6.4	524.123916441	3.0
6.4102	524.231814152	6.0
6.4205	524.340249529	5.0
6.4307	524.447119486	12.0
6.441	524.554521987	6.0
6.4512	524.660373978	1.0
6.4614	524.765723088	5.0
6.4717	524.871597164	6.0
6.4819	524.975942795	4.0
6.4922	525.080808391	7.0
6.5024	525.184160102	3.0
6.5126	525.28702081	7.0
6.5229	525.390394084	3.0
6.5331	525.492275016	6.0
6.5434	525.594663632	2.0
6.5536	525.69557412	4.0
6.5638	525.796005204	2.0
6.5741	525.896936746	2.0
6.5843	525.996411196	8.0
6.5946	526.096381338	6.0
6.6048	526.194908267	4.0
6.615	526.292967115	3.0
6.6253	526.391514601	2.0
6.6355	526.488639411	4.0
6.6458	526.586248205	3.0
6.656	526.682447876	3.0
6.6662	526.778190522	2.0
6.6765	526.874410263	3.0
6.6867	526.969240935	4.0
6.697	527.064544157	5.0
6.7072	527.158471541	5.0
6.7174	527.251952694	8.0
6.7277	527.345899674	2.0
6.7379	527.438490395	4.0
6.7482	527.531542504	3.0
6.7584	527.623251273	3.0
6.7686	527.714524352	1.0
6.7789	527.806252254	3.0
6.7891	527.896655933	1.0
6.7994	527.987510102	6.0
6.8096	528.077052661	3.0
6.8198	528.166169822	2.0
6.8301	528.255731062	7.0
6.8403	528.343999358	4.0
6.8506	528.432707503	1.0
6.8608	528.520135019	9.0
6.871	528.607147185	3.0
6.8813	528.694592941	1.0
6.8915	528.780776293	3.0
6.9018	528.867389105	3.0
6.912	528.952751537	4.0
6.9222	529.037708429	4.0
6.9325	529.12308867	4.0
6.9427	529.207236325	4.0
6.953	529.291803296	4.0
6.9632	529.375149422	2.0
6.9734	529.458099587	0.0
6.9837	529.541463102	2.0
6.9939	529.623623144	1.0
7.0042	529.706192599	1.0
7.0144	529.787570045	3.0
7.0246	529.868560883	1.0
7.0349	529.949955307	2.0
7.0451	530.030174685	2.0
7.0554	530.110793806	4.0
7.0656	530.190249073	4.0
7.0758	530.269326864	1.0
7.0861	530.348798709	4.0
7.0963	530.427123263	2.0
7.1066	530.505838117	3.0
7.1168	530.583416609	4.0
7.127	530.660626541	5.0
7.1373	530.738221218	1.0
7.1475	530.814695705	2.0
7.1578	530.891551272	2.0
7.168	530.967297318	6.0
7.1782	531.042683511	3.0
7.1885	531.11844536	2.0
7.1987	531.193113479	3.0
7.209	531.268153677	1.0
7.2192	531.342110561	1.0
7.2294	531.415716092	2.0
7.2397	531.489688407	3.0
7.2499	531.562592825	2.0
7.2602	531.635860533	4.0
7.2704	531.708070517	1.0
7.2806	531.779937445	5.0
7.2909	531.852162495	0.0
7.3011	531.923344871	6.0
7.3114	531.994881958	1.0
7.3216	532.065386303	0.0
7.3318	532.135555697	4.0
7.3421	532.206074752	4.0
7.3523	532.275575763	2.0
7.3626	532.345423106	3.0
7.3728	532.414262101	0.0
7.383	532.482774056	5.0
7.3933	532.551627414	0.0
7.4035	532.619486774	5.0
7.4138	532.687684285	1.0
7.424	532.754897267	6.0
7.4342	532.821790933	2.0
7.4445	532.889017938	1.0
7.4547	532.955274424	3.0
7.465	533.021861074	3.0
7.4752	533.087486449	3.0
7.4854	533.152800052	0.0
7.4957	533.218439119	1.0
7.5059	533.283130592	6.0
7.5162	533.348144429	2.0
7.5264	533.412219698	2.0
7.5366	533.475990559	0.0
7.5469	533.540079196	3.0
7.5571	533.603242622	2.0
7.5674	533.666720798	3.0
7.5776	533.729282575	2.0
7.5878	533.791547134	0.0
7.5981	533.854121964	5.0
7.6083	533.915793436	4.0
7.6186	533.977772224	4.0
7.6288	534.038856259	1.0
7.639	534.099650096	2.0
7.6493	534.160746875	0.0
7.6595	534.220961634	2.0
7.6698	534.28147645	3.0
7.68	534.341117647	6.0
7.6902	534.400475502	2.0
7.7005	534.460129142	5.0
7.7107	534.518921597	0.0
7.721	534.578007021	2.0
7.7312	534.636239461	4.0
7.7414	534.694195251	1.0
7.7517	534.752439841	4.0
7.7619	534.809843587	2.0
7.7722	534.867533382	5.0
7.7824	534.924390341	1.0
7.7926	534.980977185	1.0
7.8029	535.037846006	5.0
7.8131	535.093893845	3.0
7.8234	535.150220976	2.0
7.8336	535.205734944	3.0
7.8438	535.260985176	4.0
7.8541	535.316510726	2.0
