TL-DOS Lehrstuhlversuch
detector=R1407503
job_number=2015-11-02-007
irradiation_dose [mSv]=0.3

[BEGIN DATA]
time [sec] 	 temperature [K] 	 photoncount 
0.0	174.591409934	0.0
0.0102	175.941768672	0.0
0.0205	177.300533033	0.0
0.0307	178.641336181	0.0
0.041	179.990485471	3.0
0.0512	181.321800647	1.0
0.0614	182.648420022	1.0
0.0717	183.983297249	1.0
0.0819	185.300529022	3.0
0.0922	186.625960211	0.0
0.1024	187.933870811	0.0
0.1126	189.237168162	2.0
0.1229	190.548578192	0.0
0.1331	191.842652975	2.0
0.1434	193.144783029	1.0
0.1536	194.429700506	1.0
0.1638	195.710085836	0.0
0.1741	196.998441223	3.0
0.1843	198.269766118	1.0
0.1946	199.549004671	1.0
0.2048	200.811333245	0.0
0.215	202.069209348	0.0
0.2253	203.334915393	0.0
0.2355	204.583890344	0.0
0.2458	205.84063983	1.0
0.256	207.080776615	0.0
0.2662	208.316539203	0.0
0.2765	209.559994084	0.0
0.2867	210.787012003	0.0
0.297	212.021667781	0.0
0.3072	213.24000291	0.0
0.3174	214.45404074	0.0
0.3277	215.675635632	0.0
0.3379	216.881082525	0.0
0.3482	218.094033003	0.0
0.3584	219.29094975	0.0
0.3686	220.483644744	0.0
0.3789	221.683763948	0.0
0.3891	222.868019034	0.0
0.3994	224.059645792	0.0
0.4096	225.235520692	0.0
0.4198	226.407248059	0.0
0.4301	227.586269117	0.0
0.4403	228.749704949	0.0
0.4506	229.92038286	0.0
0.4608	231.07558583	0.0
0.471	232.226714182	0.0
0.4813	233.385008	0.0
0.4915	234.527990582	0.0
0.5018	235.678087926	0.0
0.512	236.81298238	0.0
0.5222	237.943873847	0.0
0.5325	239.081804812	0.0
0.5427	240.204693713	0.0
0.553	241.334572297	0.0
0.5632	242.44951526	0.0
0.5734	243.560525608	0.0
0.5837	244.678451699	0.0
0.5939	245.781600166	0.0
0.6042	246.891615438	0.0
0.6144	247.986957657	1.0
0.6246	249.078436397	0.0
0.6349	250.176709301	0.0
0.6451	251.260464372	0.0
0.6554	252.350965529	0.0
0.6656	253.427051587	0.0
0.6758	254.499342085	1.0
0.6861	255.578307305	0.0
0.6963	256.643009917	0.0
0.7066	257.714340018	1.0
0.7168	258.771508438	0.0
0.727	259.824948025	0.0
0.7373	260.884944992	0.0
0.7475	261.930930087	0.0
0.7578	262.983426161	0.0
0.768	264.022009516	0.0
0.7782	265.056929591	0.0
0.7885	266.098291767	0.0
0.7987	267.125888401	0.0
0.809	268.15988155	0.0
0.8192	269.180206566	0.0
0.8294	270.196932703	0.0
0.8397	271.219987689	0.0
0.8499	272.229519131	0.0
0.8602	273.245334638	0.0
0.8704	274.247722298	0.0
0.8806	275.246574346	0.0
0.8909	276.251643983	0.0
0.9011	277.243427821	0.0
0.9114	278.241385248	0.0
0.9216	279.226150892	0.0
0.9318	280.20744308	0.0
0.9421	281.194843551	1.0
0.9523	282.169191787	0.0
0.9626	283.149605081	1.0
0.9728	284.117058504	0.0
0.983	285.081099534	0.0
0.9933	286.051141464	0.0
1.0035	287.008360618	1.0
1.0138	287.971538206	0.0
1.024	288.921983756	1.0
1.0342	289.869076906	0.0
1.0445	290.822065458	1.0
1.0547	291.762456659	0.0
1.065	292.708701545	0.0
1.0752	293.642438223	0.0
1.0854	294.572881436	1.0
1.0957	295.509116409	0.0
1.1059	296.432975494	0.0
1.1162	297.362585355	0.0
1.1264	298.279906904	0.0
1.1366	299.193992886	0.0
1.1469	300.11376881	0.0
1.1571	301.021386413	1.0
1.1674	301.934653695	0.0
1.1776	302.835848692	0.0
1.1878	303.733865005	0.0
1.1981	304.637471229	2.0
1.2083	305.529132878	0.0
1.2186	306.426344882	0.0
1.2288	307.311696835	1.0
1.239	308.193925983	0.0
1.2493	309.081646772	0.0
1.2595	309.957632972	0.0
1.2698	310.839071952	0.0
1.28	311.70885938	1.0
1.2902	312.575578903	2.0
1.3005	313.447693524	0.0
1.3107	314.30827985	0.0
1.321	315.174223096	0.0
1.3312	316.028719625	2.0
1.3414	316.880202183	0.0
1.3517	317.736984993	0.0
1.3619	318.582442175	0.0
1.3722	319.433162103	0.0
1.3824	320.272636547	1.0
1.3926	321.109150006	0.0
1.4029	321.950870538	0.0
1.4131	322.781464548	1.0
1.4234	323.617228784	0.0
1.4336	324.441945233	1.0
1.4438	325.263752751	0.0
1.4541	326.090675801	1.0
1.4643	326.906667933	2.0
1.4746	327.7277394	0.0
1.4848	328.537957299	0.0
1.495	329.345317406	1.0
1.5053	330.157703115	0.0
1.5155	330.959350071	0.0
1.5258	331.765987067	0.0
1.536	332.561961302	1.0
1.5462	333.355127985	1.0
1.5565	334.153231919	0.0
1.5667	334.940785889	0.0
1.577	335.733242172	1.0
1.5872	336.515223147	0.0
1.5974	337.294445927	1.0
1.6077	338.07851916	0.0
1.6179	338.852227899	0.0
1.6282	339.630752768	2.0
1.6384	340.398986485	1.0
1.6486	341.164510495	1.0
1.6589	341.934799689	3.0
1.6691	342.694906596	0.0
1.6794	343.459744965	1.0
1.6896	344.214473101	0.0
1.6998	344.966539168	1.0
1.7101	345.723286645	0.0
1.7203	346.470030841	1.0
1.7306	347.22142332	1.0
1.7408	347.962883304	1.0
1.751	348.701728018	2.0
1.7613	349.445171843	1.0
1.7715	350.178788245	1.0
1.7818	350.916971213	3.0
1.792	351.645396299	3.0
1.8022	352.371252092	1.0
1.8125	353.101626144	4.0
1.8227	353.822345539	0.0
1.833	354.54755122	1.0
1.8432	355.263170563	4.0
1.8534	355.976265781	2.0
1.8637	356.693799827	2.0
1.8739	357.401848945	2.0
1.8842	358.114305479	2.0
1.8944	358.817344205	1.0
1.9046	359.517903179	0.0
1.9149	360.222822947	2.0
1.9251	360.918424531	3.0
1.9354	361.618356051	8.0
1.9456	362.309035326	4.0
1.9558	362.997278444	5.0
1.9661	363.689805693	7.0
1.9763	364.373178573	3.0
1.9866	365.060805267	6.0
1.9968	365.739342372	4.0
2.007	366.415486148	8.0
2.0173	367.095838738	7.0
2.0275	367.767197895	10.0
2.0378	368.442736083	3.0
2.048	369.109344477	8.0
2.0582	369.773601617	7.0
2.0685	370.441993581	4.0
2.0787	371.101550215	5.0
2.089	371.765212414	6.0
2.0992	372.420101805	7.0
2.1094	373.072681277	5.0
2.1197	373.729322882	8.0
2.1299	374.377284483	9.0
2.1402	375.029279473	13.0
2.1504	375.672655881	14.0
2.1606	376.313762979	9.0
2.1709	376.958860797	15.0
2.1811	377.595431207	14.0
2.1914	378.235964097	9.0
2.2016	378.868029921	8.0
2.2118	379.49786633	14.0
2.2221	380.131623302	14.0
2.2323	380.757002777	16.0
2.2426	381.386275073	16.0
2.2528	382.007229153	24.0
2.263	382.625993011	26.0
2.2733	383.248608509	13.0
2.2835	383.862993787	19.0
2.2938	384.48120345	25.0
2.304	385.091241132	18.0
2.3142	385.699127095	25.0
2.3245	386.310796987	17.0
2.3347	386.914381346	28.0
2.345	387.521722857	23.0
2.3552	388.121036051	27.0
2.3654	388.718235354	26.0
2.3757	389.319152064	30.0
2.3859	389.912125385	25.0
2.3962	390.508789807	24.0
2.4064	391.09756705	34.0
2.4166	391.684267565	23.0
2.4269	392.274620133	34.0
2.4371	392.857168959	28.0
2.4474	393.443343995	23.0
2.4576	394.02177051	25.0
2.4678	394.598156805	37.0
2.4781	395.178130951	36.0
2.4883	395.750438544	34.0
2.4986	396.326308599	40.0
2.5088	396.894566352	31.0
2.519	397.460819752	36.0
2.5293	398.030597928	43.0
2.5395	398.592844329	41.0
2.5498	399.158590565	42.0
2.56	399.716858323	44.0
2.5702	400.273156964	39.0
2.5805	400.832918417	57.0
2.5907	401.385280503	41.0
2.601	401.941080896	42.0
2.6112	402.489534283	42.0
2.6214	403.036053172	48.0
2.6317	403.585973994	46.0
2.6419	404.128625532	50.0
2.6522	404.674654931	43.0
2.6624	405.213466485	39.0
2.6726	405.750377549	40.0
2.6829	406.29063074	44.0
2.6931	406.823742442	52.0
2.7034	407.360172621	55.0
2.7136	407.889511846	41.0
2.7238	408.41698399	37.0
2.7341	408.947739508	43.0
2.7443	409.471479084	42.0
2.7546	409.998478798	29.0
2.7648	410.518512217	37.0
2.775	411.03671138	29.0
2.7853	411.558136194	34.0
2.7955	412.072668405	42.0
2.8058	412.590403443	39.0
2.816	413.101294653	39.0
2.8262	413.610383852	28.0
2.8365	414.122641997	31.0
2.8467	414.628128711	29.0
2.857	415.136761945	26.0
2.8672	415.638671666	32.0
2.8774	416.138811056	31.0
2.8877	416.642063681	34.0
2.8979	417.138663917	28.0
2.9082	417.638355358	38.0
2.9184	418.131441485	24.0
2.9286	418.622788404	28.0
2.9389	419.117193827	22.0
2.9491	419.605063811	25.0
2.9594	420.095970655	23.0
2.9696	420.580388307	26.0
2.9798	421.063097327	29.0
2.9901	421.548811082	22.0
3.0003	422.028104291	13.0
3.0106	422.510380973	24.0
3.0208	422.986282543	28.0
3.031	423.460505518	26.0
3.0413	423.937680404	22.0
3.0515	424.408547619	24.0
3.0618	424.882345856	22.0
3.072	425.349881057	27.0
3.0822	425.815767172	21.0
3.0925	426.284553305	29.0
3.1027	426.747142654	26.0
3.113	427.212611499	27.0
3.1232	427.671927411	33.0
3.1334	428.129623229	35.0
3.1437	428.590168082	39.0
3.1539	429.044625091	20.0
3.1642	429.501910974	25.0
3.1744	429.953152094	34.0
3.1846	430.4028016	29.0
3.1949	430.855250055	29.0
3.2051	431.301717692	41.0
3.2154	431.75096447	41.0
3.2256	432.194272752	33.0
3.2358	432.636017401	33.0
3.2461	433.080511793	34.0
3.2563	433.51913051	41.0
3.2666	433.960479511	53.0
3.2768	434.395994415	40.0
3.287	434.829973175	44.0
3.2973	435.266653337	41.0
3.3075	435.697561119	42.0
3.3178	436.131151186	42.0
3.328	436.55900972	37.0
3.3382	436.985359115	42.0
3.3485	437.414362422	39.0
3.3587	437.837694827	45.0
3.369	438.263662363	49.0
3.3792	438.683999126	51.0
3.3894	439.102853281	38.0
3.3997	439.524314692	45.0
3.4099	439.940204895	38.0
3.4202	440.358683904	45.0
3.4304	440.771631129	42.0
3.4406	441.183121811	43.0
3.4509	441.597173913	37.0
3.4611	442.005752749	50.0
3.4714	442.41687488	51.0
3.4816	442.822562475	42.0
3.4918	443.226819134	63.0
3.5021	443.633592182	54.0
3.5123	444.034988186	54.0
3.5226	444.438882772	45.0
3.5328	444.837438363	55.0
3.543	445.234588173	45.0
3.5533	445.634210134	47.0
3.5635	446.028549579	50.0
3.5738	446.425343682	48.0
3.584	446.816892648	56.0
3.5942	447.207060548	55.0
3.6045	447.599657139	49.0
3.6147	447.98706408	59.0
3.625	448.376882526	58.0
3.6352	448.761548045	54.0
3.6454	449.144856777	60.0
3.6557	449.530551503	59.0
3.6659	449.911147814	59.0
3.6762	450.294113236	39.0
3.6864	450.672016319	55.0
3.6966	451.048586468	45.0
3.7069	451.427500665	38.0
3.7171	451.801406076	42.0
3.7274	452.17763895	46.0
3.7376	452.548898482	35.0
3.7478	452.918848511	46.0
3.7581	453.291101381	62.0
3.7683	453.65843352	45.0
3.7786	454.028052204	46.0
3.7888	454.392784978	39.0
3.799	454.75623127	56.0
3.8093	455.121939919	51.0
3.8195	455.482814344	47.0
3.8298	455.845935116	48.0
3.84	456.204255872	44.0
3.8502	456.561312764	44.0
3.8605	456.920592239	37.0
3.8707	457.275122476	31.0
3.881	457.63185957	49.0
3.8912	457.983881033	47.0
3.9014	458.334660849	43.0
3.9117	458.687624177	44.0
3.9219	459.035921758	49.0
3.9322	459.386387398	41.0
3.9424	459.732220309	40.0
3.9526	460.076833402	37.0
3.9629	460.423591619	38.0
3.9731	460.765766114	51.0
3.9834	461.110070555	47.0
3.9936	461.449823708	36.0
4.0038	461.788378489	48.0
4.0141	462.129040682	35.0
4.0243	462.465199735	48.0
4.0346	462.803451289	38.0
4.0448	463.137231568	37.0
4.055	463.469834541	28.0
4.0653	463.804507879	47.0
4.0755	464.134757242	46.0
4.0858	464.46706232	39.0
4.096	464.794974728	47.0
4.1062	465.121730527	48.0
4.1165	465.450520293	40.0
4.1267	465.774963859	43.0
4.137	466.101426999	28.0
4.1472	466.423574694	32.0
4.1574	466.744586112	41.0
4.1677	467.067595741	47.0
4.1779	467.386335575	39.0
4.1882	467.70705948	36.0
4.1984	468.023543804	28.0
4.2086	468.338911828	48.0
4.2189	468.656242935	40.0
4.2291	468.969379309	45.0
4.2394	469.284464874	31.0
4.2496	469.595385391	37.0
4.2598	469.905209232	45.0
4.2701	470.216961645	36.0
4.2803	470.524593069	44.0
4.2906	470.834139416	30.0
4.3008	471.139593938	37.0
4.311	471.443971063	47.0
4.3213	471.750242855	40.0
4.3315	472.052466106	48.0
4.3418	472.356570616	37.0
4.352	472.656655234	38.0
4.3622	472.955681396	30.0
4.3725	473.256568917	40.0
4.3827	473.553479071	47.0
4.393	473.852237411	29.0
4.4032	474.147046529	38.0
4.4134	474.440815799	35.0
4.4237	474.736413705	50.0
4.4339	475.028104166	46.0
4.4442	475.321610322	40.0
4.4544	475.611236683	36.0
4.4646	475.899841477	40.0
4.4749	476.19024276	31.0
4.4851	476.47680529	36.0
4.4954	476.765151596	49.0
4.5056	477.049686313	33.0
4.5158	477.333217424	45.0
4.5261	477.618513439	36.0
4.5363	477.900038188	30.0
4.5466	478.183315354	27.0
4.5568	478.46284794	34.0
4.567	478.741394561	43.0
4.5773	479.021675061	31.0
4.5875	479.298250593	42.0
4.5978	479.576547734	41.0
4.608	479.851166125	36.0
4.6182	480.124815885	35.0
4.6285	480.400169042	43.0
4.6387	480.671882365	44.0
4.649	480.945287031	33.0
4.6592	481.21507762	49.0
4.6694	481.483916606	34.0
4.6797	481.754429043	30.0
4.6899	482.021365634	44.0
4.7002	482.289963834	36.0
4.7104	482.555011493	29.0
4.7206	482.819124279	35.0
4.7309	483.084881096	41.0
4.7411	483.347124931	43.0
4.7514	483.611001164	43.0
4.7616	483.871389273	20.0
4.7718	484.130858945	33.0
4.7821	484.391943746	49.0
4.7923	484.649577324	37.0
4.8026	484.908814601	30.0
4.8128	485.164625078	38.0
4.823	485.419533262	28.0
4.8333	485.676028181	32.0
4.8435	485.929132549	26.0
4.8538	486.183812425	32.0
4.864	486.435125742	36.0
4.8742	486.68555263	38.0
4.8845	486.937538358	32.0
4.8947	487.186193141	28.0
4.905	487.436395734	26.0
4.9152	487.683290953	25.0
4.9254	487.929315325	29.0
4.9357	488.176871134	27.0
4.9459	488.421154555	37.0
4.9562	488.666958576	32.0
4.9664	488.909513366	32.0
4.9766	489.15121262	30.0
4.9869	489.394416387	24.0
4.9971	489.634405296	38.0
5.0074	489.875888072	32.0
5.0176	490.114178739	35.0
5.0278	490.35162891	28.0
5.0381	490.590557145	34.0
5.0483	490.826327039	27.0
5.0586	491.063564538	33.0
5.0688	491.297666045	29.0
5.079	491.530941832	29.0
5.0893	491.765669698	32.0
5.0995	491.997294748	27.0
5.1098	492.230361601	38.0
5.12	492.460347594	23.0
5.1302	492.689522383	30.0
5.1405	492.920123724	37.0
5.1507	493.147676795	27.0
5.161	493.376646324	40.0
5.1712	493.602589153	27.0
5.1814	493.82773504	23.0
5.1917	494.0542824	28.0
5.2019	494.277835079	40.0
5.2122	494.502779313	29.0
5.2224	494.724750059	26.0
5.2326	494.945937871	30.0
5.2429	495.168502519	28.0
5.2531	495.388125132	38.0
5.2634	495.609114838	29.0
5.2736	495.827183328	27.0
5.2838	496.04448265	37.0
5.2941	496.263134602	30.0
5.3043	496.478896241	38.0
5.3146	496.696000938	27.0
5.3248	496.910235775	38.0
5.335	497.123714966	33.0
5.3453	497.338523007	30.0
5.3555	497.550491547	30.0
5.3658	497.763779535	36.0
5.376	497.974248115	42.0
5.3862	498.183974333	37.0
5.3965	498.39500604	24.0
5.4067	498.603248164	33.0
5.417	498.81278654	24.0
5.4272	499.019555074	37.0
5.4374	499.225594296	25.0
5.4477	499.432916057	25.0
5.4579	499.637497276	27.0
5.4682	499.843351959	25.0
5.4784	500.046485493	33.0
5.4886	500.248902536	32.0
5.4989	500.452579572	31.0
5.5091	500.653564245	34.0
5.5194	500.855799994	33.0
5.5296	501.055362432	22.0
5.5398	501.254220976	31.0
5.5501	501.454317361	34.0
5.5603	501.651768715	32.0
5.5706	501.850449151	35.0
5.5808	502.046503273	21.0
5.591	502.241865875	23.0
5.6013	502.438444557	22.0
5.6115	502.632424708	18.0
5.6218	502.827612334	21.0
5.632	503.020219816	35.0
5.6422	503.212147936	32.0
5.6525	503.405270757	30.0
5.6627	503.595840729	32.0
5.673	503.787596948	31.0
5.6832	503.976818383	24.0
5.6934	504.165372398	38.0
5.7037	504.355100111	33.0
5.7139	504.542319855	29.0
5.7242	504.730704992	26.0
5.7344	504.916599906	24.0
5.7446	505.101839134	28.0
5.7549	505.288231426	24.0
5.7651	505.472159839	24.0
5.7754	505.657233158	19.0
5.7856	505.839860031	29.0
5.7958	506.021842746	25.0
5.8061	506.204958254	29.0
5.8163	506.385653198	24.0
5.8266	506.567472919	22.0
5.8368	506.746889205	22.0
5.847	506.925672656	27.0
5.8573	507.105568986	23.0
5.8675	507.283087305	17.0
5.8778	507.461710628	18.0
5.888	507.637972768	19.0
5.8982	507.813613199	23.0
5.9085	507.990346944	23.0
5.9187	508.164744483	20.0
5.929	508.340227601	19.0
5.9392	508.513391046	23.0
5.9494	508.68594371	10.0
5.9597	508.859570468	19.0
5.9699	509.030902092	17.0
5.9802	509.203300209	20.0
5.9904	509.373419433	24.0
6.0006	509.542938614	22.0
6.0109	509.713513007	19.0
6.0211	509.881832613	10.0
6.0314	510.051199965	11.0
6.0416	510.218328485	22.0
6.0518	510.384867512	12.0
6.0621	510.5524432	17.0
6.0723	510.717803741	24.0
6.0826	510.884193607	11.0
6.0928	511.048384002	19.0
6.103	511.211995265	7.0
6.1133	511.376624966	14.0
6.1235	511.539078461	11.0
6.1338	511.702543187	8.0
6.144	511.863847107	9.0
6.1542	512.024582078	16.0
6.1645	512.186317581	13.0
6.1747	512.345915138	14.0
6.185	512.506506147	8.0
6.1952	512.664974338	14.0
6.2054	512.822883581	7.0
6.2157	512.981775767	14.0
6.2259	513.138567592	11.0
6.2362	513.296335404	8.0
6.2464	513.452017718	10.0
6.2566	513.60715091	8.0
6.2669	513.763249765	8.0
6.2771	513.917285183	10.0
6.2874	514.072279431	9.0
6.2976	514.225224843	5.0
6.3078	514.377630787	12.0
6.3181	514.530985418	4.0
6.3283	514.682312887	5.0
6.3386	514.834582329	9.0
6.3488	514.984838954	15.0
6.359	515.134565596	5.0
6.3693	515.285224246	5.0
6.3795	515.433891371	7.0
6.3898	515.58348391	5.0
6.4	515.731099018	5.0
6.4102	515.878193459	9.0
6.4205	516.026203524	7.0
6.4307	516.172257075	8.0
6.441	516.319219771	9.0
6.4512	516.464239799	3.0
6.4614	516.608748313	7.0
6.4717	516.754156355	5.0
6.4819	516.897642279	5.0
6.4922	517.042021364	11.0
6.5024	517.184491934	2.0
6.5126	517.326459983	4.0
6.5229	517.469311745	2.0
6.5331	517.610275181	4.0
6.5434	517.752116076	3.0
6.5536	517.892082007	2.0
6.5638	518.031554252	3.0
6.5741	518.171894674	5.0
6.5843	518.310379966	9.0
6.5946	518.449727293	5.0
6.6048	518.587232617	1.0
6.615	518.724252934	5.0
6.6253	518.862126165	7.0
6.6355	518.998176881	2.0
6.6458	519.135074475	7.0
6.656	519.27016245	5.0
6.6662	519.404773944	3.0
6.6765	519.540223359	5.0
6.6867	519.673882296	4.0
6.697	519.808373226	2.0
6.7072	519.941086348	4.0
6.7174	520.073331367	2.0
6.7277	520.206399575	1.0
6.7379	520.337708783	4.0
6.7482	520.469835356	2.0
6.7584	520.600215377	4.0
6.7686	520.730135522	4.0
6.7789	520.860864386	1.0
6.7891	520.989865173	1.0
6.7994	521.119668955	3.0
6.8096	521.247756889	3.0
6.8198	521.375393033	2.0
6.8301	521.503823678	4.0
6.8403	521.630556625	0.0
6.8506	521.758078452	0.0
6.8608	521.883914595	2.0
6.871	522.00930689	0.0
6.8813	522.135479719	1.0
6.8915	522.259984696	1.0
6.9018	522.385264683	1.0
6.912	522.508888622	0.0
6.9222	522.632076515	1.0
6.9325	522.75603122	2.0
6.9427	522.878347395	3.0
6.953	523.001424955	3.0
6.9632	523.122875579	5.0
6.9734	523.243897824	0.0
6.9837	523.365673401	2.0
6.9939	523.485839252	0.0
7.0042	523.606753103	2.0
7.0144	523.72606862	0.0
7.0246	523.844963289	0.0
7.0349	523.964598046	1.0
7.0451	524.082651376	2.0
7.0554	524.201439557	2.0
7.0656	524.318657503	1.0
7.0758	524.435461999	1.0
7.0861	524.552993571	2.0
7.0963	524.668971519	0.0
7.1066	524.785671399	1.0
7.1168	524.900828648	0.0
7.127	525.015579716	0.0
7.1373	525.131045078	0.0
7.1475	525.244984129	1.0
7.1578	525.35963242	1.0
7.168	525.4727652	2.0
7.1782	525.58549894	1.0
7.1885	525.698934416	0.0
7.1987	525.810870414	2.0
7.209	525.923503183	1.0
7.2192	526.034647084	0.0
7.2294	526.14539896	0.0
7.2397	526.256840236	2.0
7.2499	526.366808394	1.0
7.2602	526.477461075	0.0
7.2704	526.586651061	1.0
7.2806	526.695455914	1.0
7.2909	526.804938048	1.0
7.3011	526.912972961	1.0
7.3114	527.021680363	0.0
7.3216	527.128950785	2.0
7.3318	527.235842844	0.0
7.3421	527.343400278	2.0
7.3523	527.449535933	0.0
7.3626	527.556332254	1.0
7.3728	527.661716857	3.0
7.383	527.76672975	2.0
7.3933	527.872396319	3.0
7.4035	527.976666105	3.0
7.4138	528.081584942	1.0
7.424	528.18511688	2.0
7.4342	528.288283641	1.0
7.4445	528.392092588	1.0
7.4547	528.494529307	1.0
7.465	528.597603666	0.0
7.4752	528.699315509	1.0
7.4854	528.800668594	1.0
7.4957	528.902652575	1.0
7.5059	529.003288452	2.0
7.5162	529.10455076	0.0
7.5264	529.204474504	0.0
7.5366	529.304045797	1.0
7.5469	529.404236896	1.0
7.5571	529.50310359	0.0
7.5674	529.602585703	0.0
7.5776	529.700752783	1.0
7.5878	529.798573609	0.0
7.5981	529.897003344	1.0
7.6083	529.994131957	0.0
7.6186	530.09186517	1.0
7.6288	530.188306469	0.0
7.639	530.284407601	0.0
7.6493	530.381106937	3.0
7.6595	530.476528025	0.0
7.6698	530.572543084	1.0
7.68	530.667288941	1.0
7.6902	530.761700611	0.0
7.7005	530.856699969	1.0
7.7107	530.95044355	0.0
7.721	531.044770661	4.0
7.7312	531.137850881	0.0
7.7414	531.23060279	0.0
7.7517	531.323932055	1.0
7.7619	531.416027621	0.0
7.7722	531.508696457	1.0
7.7824	531.600140323	1.0
7.7926	531.69126165	0.0
7.8029	531.782950182	0.0
7.8131	531.873426704	3.0
7.8234	531.964466418	0.0
7.8336	532.054302697	1.0
7.8438	532.143822107	2.0
7.8541	532.233898751	1.0
7.8643	532.322784692	1.0
7.8746	532.412223924	0.0
7.8848	532.500480878	2.0
7.895	532.588426533	1.0
7.9053	532.676919626	0.0
7.9155	532.764242948	0.0
7.9258	532.852109835	1.0
7.936	532.938815228	0.0
7.9462	533.025214794	2.0
7.9565	533.112152175	0.0
7.9667	533.19794035	2.0
7.977	533.284262533	0.0
7.9872	533.369443641	3.0
7.9974	533.4543243	0.0
8.0077	533.539733318	1.0
8.0179	533.624013333	1.0
8.0282	533.708817968	1.0
