TL-DOS Lehrstuhlversuch
detector=R1408303
job_number=2015-10-20-012
irradiation_dose [mSv]=2.0

[BEGIN DATA]
time [sec] 	 temperature [K] 	 photoncount 
0.0	112.889098693	0.0
0.0102	114.899252429	0.0
0.0205	116.919599815	0.0
0.0307	118.910954893	0.0
0.041	120.912408291	1.0
0.0512	122.885140512	0.0
0.0614	124.848671714	0.0
0.0717	126.82216014	0.0
0.0819	128.76732869	1.0
0.0922	130.722361346	0.0
0.1024	132.649338969	0.0
0.1126	134.567328977	2.0
0.1229	136.495045267	0.0
0.1331	138.395098518	3.0
0.1434	140.304787091	1.0
0.1536	142.187071327	0.0
0.1638	144.060576402	1.0
0.1741	145.943582172	1.0
0.1843	147.799566506	1.0
0.1946	149.664962686	1.0
0.2048	151.503590131	3.0
0.215	153.333642035	0.0
0.2253	155.172974279	4.0
0.2355	156.98591181	0.0
0.2458	158.808042893	0.0
0.256	160.604026102	1.0
0.2662	162.391632666	0.0
0.2765	164.188304328	0.0
0.2867	165.959193462	0.0
0.297	167.739062917	0.0
0.3072	169.49339096	0.0
0.3174	171.239536642	0.0
0.3277	172.994537169	0.0
0.3379	174.724353156	0.0
0.3482	176.46294118	0.0
0.3584	178.176580186	0.0
0.3686	179.882226609	0.0
0.3789	181.596522502	0.0
0.3891	183.286217974	0.0
0.3994	184.984482027	0.0
0.4096	186.658375719	0.0
0.4198	188.324462203	1.0
0.4301	189.998997546	0.0
0.4403	191.649503038	0.0
0.4506	193.308378376	0.0
0.4608	194.943448586	0.0
0.471	196.570892666	0.0
0.4813	198.206589646	1.0
0.4915	199.818814111	0.0
0.5018	201.439214296	0.0
0.512	203.036361478	0.0
0.5222	204.626059407	0.0
0.5325	206.223818821	0.0
0.5427	207.798650132	0.0
0.553	209.381467538	0.0
0.5632	210.94157126	0.0
0.5734	212.494398504	0.0
0.5837	214.055100259	0.0
0.5939	215.593405693	0.0
0.6042	217.139511998	0.0
0.6144	218.663431429	0.0
0.6246	220.180243147	1.0
0.6349	221.70474674	0.0
0.6451	223.207373462	0.0
0.6554	224.717620124	0.0
0.6656	226.206194505	0.0
0.6758	227.687826026	0.0
0.6861	229.176971019	0.0
0.6963	230.644746543	0.0
0.7066	232.119965274	0.0
0.7168	233.57401438	1.0
0.727	235.021281656	0.0
0.7373	236.47588814	0.0
0.7475	237.909620788	0.0
0.7578	239.350624009	0.0
0.768	240.770948603	0.0
0.7782	242.184648661	0.0
0.7885	243.605517706	0.0
0.7987	245.005997052	0.0
0.809	246.413578341	0.0
0.8192	247.800960612	0.0
0.8294	249.181871995	0.0
0.8397	250.56978609	0.0
0.8499	251.937783394	0.0
0.8602	253.312717923	0.0
0.8704	254.667921921	0.0
0.8806	256.016805112	0.0
0.8909	257.372528599	1.0
0.9011	258.708797236	1.0
0.9114	260.051842198	0.0
0.9216	261.375614249	1.0
0.9318	262.693212096	0.0
0.9421	264.017491587	0.0
0.9523	265.322767455	1.0
0.9626	266.634662481	0.0
0.9728	267.927731604	0.0
0.983	269.214769723	0.0
0.9933	270.508334515	0.0
1.0035	271.783336446	0.0
1.0138	273.064804013	0.0
1.024	274.327882315	0.0
1.0342	275.585069494	0.0
1.0445	276.848631971	0.0
1.0547	278.094062123	0.0
1.065	279.345807951	0.0
1.0752	280.579591025	0.0
1.0854	281.807619613	2.0
1.0957	283.041875632	1.0
1.1059	284.258419879	1.0
1.1162	285.481133319	2.0
1.1264	286.686300625	1.0
1.1366	287.885846911	1.0
1.1469	289.091476193	0.0
1.1571	290.279804501	1.0
1.1674	291.474158917	2.0
1.1776	292.651374155	0.0
1.1878	293.823098744	0.0
1.1981	295.000765243	2.0
1.2083	296.161532039	2.0
1.2186	297.328185176	1.0
1.2288	298.478096653	0.0
1.239	299.622644828	0.0
1.2493	300.7729971	2.0
1.2595	301.906841631	1.0
1.2698	303.046435979	0.0
1.28	304.169676966	3.0
1.2902	305.287679044	1.0
1.3005	306.411350601	0.0
1.3107	307.51889729	5.0
1.321	308.632060438	3.0
1.3312	309.729249516	2.0
1.3414	310.821321194	0.0
1.3517	311.918930856	5.0
1.3619	313.000789643	4.0
1.3722	314.088134623	2.0
1.3824	315.159876028	3.0
1.3926	316.226618724	2.0
1.4029	317.298770958	5.0
1.4131	318.355537635	4.0
1.4234	319.417663261	8.0
1.4336	320.464547213	4.0
1.4438	321.506548395	5.0
1.4541	322.553833648	12.0
1.4643	323.58609019	6.0
1.4746	324.623581388	5.0
1.4848	325.64618442	10.0
1.495	326.66401793	3.0
1.5053	327.687012955	6.0
1.5155	328.695327838	9.0
1.5258	329.708755966	6.0
1.536	330.707641238	8.0
1.5462	331.701867609	12.0
1.5565	332.701135782	15.0
1.5667	333.686064297	8.0
1.577	334.675987463	11.0
1.5872	335.651705073	8.0
1.5974	336.622871838	9.0
1.6077	337.598963469	24.0
1.6179	338.561048027	17.0
1.6282	339.528011394	10.0
1.6384	340.481098681	15.0
1.6486	341.429740674	11.0
1.6589	342.383193307	7.0
1.6691	343.322963742	18.0
1.6794	344.267499827	18.0
1.6896	345.198481669	14.0
1.6998	346.125121318	19.0
1.7101	347.056460031	18.0
1.7203	347.974433885	21.0
1.7306	348.897062857	23.0
1.7408	349.806451956	16.0
1.751	350.711599573	30.0
1.7613	351.621337266	32.0
1.7715	352.518020078	33.0
1.7818	353.41925004	25.0
1.792	354.307547207	31.0
1.8022	355.191701268	37.0
1.8125	356.080338945	32.0
1.8227	356.956224529	35.0
1.833	357.836551799	38.0
1.8432	358.704246231	41.0
1.8534	359.56789365	46.0
1.8637	360.435920695	45.0
1.8739	361.291491412	52.0
1.8842	362.151400796	42.0
1.8944	362.998970343	59.0
1.9046	363.842586742	58.0
1.9149	364.690481187	71.0
1.9251	365.52620821	81.0
1.9354	366.366173272	59.0
1.9456	367.194084701	80.0
1.9558	368.018134668	88.0
1.9661	368.846363459	67.0
1.9763	369.662707034	84.0
1.9866	370.483190352	91.0
1.9968	371.291899603	102.0
2.007	372.096836954	115.0
2.0173	372.905856207	100.0
2.0275	373.703265903	131.0
2.0378	374.504719328	114.0
2.048	375.294671768	147.0
2.0582	376.080939791	158.0
2.0685	376.871195042	136.0
2.0787	377.650110004	159.0
2.089	378.432974905	145.0
2.0992	379.20460557	181.0
2.1094	379.972637273	180.0
2.1197	380.744563725	188.0
2.1299	381.50541291	193.0
2.1402	382.270120422	185.0
2.1504	383.023854258	220.0
2.1606	383.774072604	254.0
2.1709	384.528095368	225.0
2.1811	385.271297784	246.0
2.1914	386.018269039	253.0
2.2016	386.754521137	268.0
2.2118	387.487339282	268.0
2.2221	388.223873606	292.0
2.2323	388.949838545	303.0
2.2426	389.67948491	314.0
2.2528	390.398660732	314.0
2.263	391.114482247	322.0
2.2733	391.833933751	300.0
2.2835	392.543061009	333.0
2.2938	393.255784309	375.0
2.304	393.958279916	379.0
2.3142	394.657499012	390.0
2.3245	395.360263905	374.0
2.3347	396.052944009	387.0
2.345	396.749136749	389.0
2.3552	397.435339012	364.0
2.3654	398.118340759	363.0
2.3757	398.804806063	427.0
2.3859	399.481420479	442.0
2.3962	400.161466062	413.0
2.4064	400.831752881	471.0
2.4166	401.498913415	460.0
2.4269	402.169457175	427.0
2.4371	402.830378523	456.0
2.4474	403.494651457	446.0
2.4576	404.149391968	434.0
2.4678	404.801078704	431.0
2.4781	405.456070195	432.0
2.4883	406.101662453	428.0
2.4986	406.750528562	456.0
2.5088	407.390083338	419.0
2.519	408.026655166	398.0
2.5293	408.666455102	392.0
2.5395	409.297073805	409.0
2.5498	409.930890427	412.0
2.56	410.555611678	376.0
2.5702	411.177419168	394.0
2.5805	411.802379893	367.0
2.5907	412.418372331	330.0
2.601	413.037488516	350.0
2.6112	413.647720285	335.0
2.6214	414.255105872	310.0
2.6317	414.86557156	302.0
2.6419	415.467276968	283.0
2.6522	416.072033671	267.0
2.6624	416.668112019	283.0
2.6726	417.261410199	279.0
2.6829	417.857717041	289.0
2.6931	418.445466784	274.0
2.7034	419.036197053	239.0
2.7136	419.618450248	243.0
2.7238	420.197987756	217.0
2.7341	420.780464145	220.0
2.7443	421.354581905	215.0
2.7546	421.931611062	238.0
2.7648	422.500359758	257.0
2.775	423.066455753	223.0
2.7853	423.635422466	204.0
2.7955	424.196224416	205.0
2.8058	424.759870238	222.0
2.816	425.315427651	224.0
2.8262	425.86839389	219.0
2.8365	426.424164264	259.0
2.8467	426.971959245	227.0
2.857	427.522532138	218.0
2.8672	428.065204221	202.0
2.8774	428.605345228	229.0
2.8877	429.148225333	266.0
2.8979	429.683315021	233.0
2.9082	430.221118193	245.0
2.9184	430.751203802	280.0
2.9286	431.27881704	245.0
2.9389	431.809105846	256.0
2.9491	432.331784923	257.0
2.9594	432.857114547	290.0
2.9696	433.374905607	278.0
2.9798	433.890281638	287.0
2.9901	434.408271183	333.0
3.0003	434.918827494	296.0
3.0106	435.431972877	301.0
3.0208	435.937754541	316.0
3.031	436.44117719	327.0
3.0413	436.947152735	313.0
3.0515	437.44586745	350.0
3.0618	437.947111187	375.0
3.072	438.441161996	372.0
3.0822	438.932908503	356.0
3.0925	439.427148696	372.0
3.1027	439.914296463	356.0
3.113	440.403914595	388.0
3.1232	440.886506628	368.0
3.1334	441.366847804	399.0
3.1437	441.849624829	420.0
3.1539	442.325473926	369.0
3.1642	442.803736092	386.0
3.1744	443.275135119	395.0
3.1846	443.744335494	411.0
3.1949	444.215915222	399.0
3.2051	444.680727705	385.0
3.2154	445.14789729	414.0
3.2256	445.608362915	407.0
3.2358	446.066680884	425.0
3.2461	446.527323019	411.0
3.2563	446.981354866	400.0
3.2666	447.437689145	420.0
3.2768	447.887474954	429.0
3.287	448.335162917	383.0
3.2973	448.785121142	391.0
3.3075	449.228622393	439.0
3.3178	449.674372676	409.0
3.328	450.11372637	407.0
3.3382	450.551030875	436.0
3.3485	450.990552986	417.0
3.3587	451.423767884	391.0
3.369	451.859179649	382.0
3.3792	452.288343186	373.0
3.3894	452.715505062	385.0
3.3997	453.14483311	401.0
3.4099	453.568000231	376.0
3.4202	453.993313266	393.0
3.4304	454.412522992	384.0
3.4406	454.829777481	393.0
3.4509	455.249147902	400.0
3.4611	455.662500289	387.0
3.4714	456.07794882	366.0
3.4816	456.487435597	377.0
3.4918	456.895012488	366.0
3.5021	457.304656234	414.0
3.5123	457.708421526	381.0
3.5226	458.114234344	362.0
3.5328	458.514223683	357.0
3.543	458.912347432	314.0
3.5533	459.312490099	347.0
3.5635	459.706890654	313.0
3.5738	460.103291246	345.0
3.584	460.494003426	339.0
3.5942	460.882893285	334.0
3.6045	461.273755236	344.0
3.6147	461.659008255	346.0
3.625	462.046214924	359.0
3.6352	462.427865114	341.0
3.6454	462.80773525	324.0
3.6557	463.189531738	328.0
3.6659	463.565849385	357.0
3.6762	463.944075369	322.0
3.6864	464.316873749	323.0
3.6966	464.687933361	341.0
3.7069	465.060874645	342.0
3.7171	465.428464163	345.0
3.7274	465.797917756	321.0
3.7376	466.162069631	335.0
3.7478	466.524523065	343.0
3.7581	466.88881453	343.0
3.7683	467.247878354	340.0
3.7786	467.608763019	344.0
3.7888	467.964468932	328.0
3.799	468.318515796	319.0
3.8093	468.674358061	333.0
3.8195	469.025093932	346.0
3.8298	469.377608413	337.0
3.84	469.725064254	346.0
3.8502	470.070899527	333.0
3.8605	470.418488558	351.0
3.8707	470.761089631	322.0
3.881	471.105428061	302.0
3.8912	471.44482518	347.0
3.9014	471.782639316	328.0
3.9117	472.122166536	356.0
3.9219	472.456821485	332.0
3.9322	472.793173496	319.0
3.9424	473.124698802	339.0
3.9526	473.454677841	329.0
3.9629	473.78633023	317.0
3.9731	474.113223354	308.0
3.9834	474.441774179	324.0
3.9936	474.765610247	311.0
4.0038	475.087935912	342.0
4.0141	475.411896116	306.0
4.0243	475.731207438	305.0
4.0346	476.052138015	318.0
4.0448	476.368463186	336.0
4.055	476.683312985	336.0
4.0653	476.999759412	319.0
4.0755	477.311664782	328.0
4.0858	477.62515185	355.0
4.096	477.934140328	356.0
4.1062	478.241687653	296.0
4.1165	478.550794575	286.0
4.1267	478.855465763	326.0
4.137	479.161681963	327.0
4.1472	479.463503911	301.0
4.1574	479.763918132	296.0
4.1677	480.065855778	301.0
4.1779	480.363460569	308.0
4.1882	480.662574539	317.0
4.1984	480.957396175	310.0
4.2086	481.250842734	330.0
4.2189	481.545777383	293.0
4.2291	481.836479673	262.0
4.2394	482.128656138	279.0
4.2496	482.416639824	267.0
4.2598	482.703280325	288.0
4.2701	482.991374403	289.0
4.2803	483.275334284	293.0
4.2906	483.56073415	296.0
4.3008	483.842038481	313.0
4.311	484.12203078	290.0
4.3213	484.403442944	292.0
4.3315	484.680816797	283.0
4.3418	484.959597236	257.0
4.352	485.23437713	278.0
4.3622	485.507875424	277.0
4.3725	485.782760649	296.0
4.3827	486.053701228	297.0
4.393	486.326015768	286.0
4.4032	486.59442255	283.0
4.4134	486.861577457	275.0
4.4237	487.130087127	262.0
4.4339	487.394743641	255.0
4.4442	487.660742249	265.0
4.4544	487.922923734	272.0
4.4646	488.183882379	261.0
4.4749	488.446164366	290.0
4.4851	488.704682564	297.0
4.4954	488.964511729	251.0
4.5056	489.220612303	277.0
4.5158	489.4755184	271.0
4.5261	489.731717145	279.0
4.5363	489.984239397	296.0
4.5466	490.23804221	262.0
4.5568	490.488202912	254.0
4.567	490.737196839	273.0
4.5773	490.987453435	291.0
4.5875	491.234118808	252.0
4.5978	491.482035041	270.0
4.608	491.726393636	236.0
4.6182	491.969612519	251.0
4.6285	492.214064784	238.0
4.6387	492.455009119	269.0
4.649	492.697175303	295.0
4.6592	492.935866363	274.0
4.6694	493.173444145	282.0
4.6797	493.412226702	256.0
4.6899	493.647582691	253.0
4.7002	493.88413219	242.0
4.7104	494.117287165	263.0
4.7206	494.349354682	257.0
4.7309	494.582599032	256.0
4.7411	494.812496288	288.0
4.7514	495.043559372	265.0
4.7616	495.271306663	273.0
4.7718	495.497991719	259.0
4.7821	495.725826312	246.0
4.7923	495.950391442	246.0
4.8026	496.176095361	287.0
4.8128	496.398560391	258.0
4.823	496.619987823	277.0
4.8333	496.842538131	274.0
4.8435	497.061894806	297.0
4.8538	497.282363857	267.0
4.864	497.499669141	270.0
4.8742	497.715960892	286.0
4.8845	497.933349476	284.0
4.8947	498.147618499	245.0
4.905	498.362974097	250.0
4.9152	498.575239307	262.0
4.9254	498.786514492	272.0
4.9357	498.99886107	262.0
4.9459	499.20816044	270.0
4.9562	499.418521185	253.0
4.9664	499.625863219	255.0
4.9766	499.832238189	228.0
4.9869	500.039659703	260.0
4.9971	500.244104685	257.0
5.0074	500.449586424	261.0
5.0176	500.652119467	252.0
5.0278	500.853707876	270.0
5.0381	501.056318556	252.0
5.0483	501.25602174	212.0
5.0586	501.456737634	249.0
5.0688	501.654573224	242.0
5.079	501.851486089	250.0
5.0893	502.049397514	217.0
5.0995	502.244468879	223.0
5.1098	502.440529467	250.0
5.12	502.633776553	254.0
5.1302	502.826122316	208.0
5.1405	503.01944348	240.0
5.1507	503.209990454	226.0
5.161	503.401503707	220.0
5.1712	503.590268714	248.0
5.1814	503.778153302	247.0
5.1917	503.966990668	232.0
5.2019	504.153118187	215.0
5.2122	504.340189574	210.0
5.2224	504.524576457	213.0
5.2326	504.708103341	198.0
5.2429	504.892560905	217.0
5.2531	505.074371472	200.0
5.2634	505.257104016	193.0
5.2736	505.437214319	171.0
5.2838	505.616484569	175.0
5.2941	505.796663913	193.0
5.3043	505.974257654	195.0
5.3146	506.152751987	163.0
5.3248	506.328684899	197.0
5.335	506.503797241	176.0
5.3453	506.679797592	175.0
5.3555	506.85327231	198.0
5.3658	507.027626733	170.0
5.376	507.199479141	182.0
5.3862	507.370530012	165.0
5.3965	507.542448297	150.0
5.4067	507.711899526	172.0
5.417	507.882210056	148.0
5.4272	508.050076603	155.0
5.4374	508.217160203	152.0
5.4477	508.385091098	129.0
5.4579	508.550612157	143.0
5.4682	508.716972587	118.0
5.4784	508.880945718	120.0
5.4886	509.044154062	126.0
5.4989	509.208190049	140.0
5.5091	509.369872092	146.0
5.5194	509.532374039	113.0
5.5296	509.692544057	116.0
5.5398	509.851967025	101.0
5.5501	510.01219844	113.0
5.5603	510.170130509	117.0
5.5706	510.328863464	111.0
5.5808	510.485318576	78.0
5.591	510.641043965	92.0
5.6013	510.79755905	91.0
5.6115	510.951828119	95.0
5.6218	511.106879498	94.0
5.632	511.259705866	85.0
5.6422	511.411819436	77.0
5.6525	511.564704386	87.0
5.6627	511.715395412	82.0
5.673	511.866850605	83.0
5.6832	512.016132391	87.0
5.6934	512.164717913	55.0
5.7037	512.314056923	63.0
5.7139	512.461252895	48.0
5.7242	512.609195309	62.0
5.7344	512.755014726	64.0
5.7446	512.900154026	53.0
5.7549	513.04602934	53.0
5.7651	513.189811319	71.0
5.7754	513.334322429	52.0
5.7856	513.476759781	54.0
5.7958	513.61853279	49.0
5.8061	513.761024743	62.0
5.8163	513.901471912	46.0
5.8266	514.042631301	56.0
5.8368	514.18176503	40.0
5.847	514.320249825	37.0
5.8573	514.459436887	36.0
5.8675	514.596626593	35.0
5.8778	514.734511999	46.0
5.888	514.870418727	37.0
5.8982	515.005691573	35.0
5.9085	515.141650398	41.0
5.9187	515.275658193	33.0
5.929	515.410345551	20.0
5.9392	515.543100124	33.0
5.9494	515.675235517	24.0
5.9597	515.808040979	34.0
5.9699	515.938940661	17.0
5.9802	516.070504146	28.0
5.9904	516.200179674	24.0
6.0006	516.329250382	17.0
6.0109	516.458975619	29.0
6.0211	516.586839277	23.0
6.0314	516.715351342	22.0
6.0416	516.842019238	19.0
6.0518	516.968096343	26.0
6.0621	517.094812795	16.0
6.0723	517.219710845	16.0
6.0826	517.345242264	21.0
6.0928	517.468972286	14.0
6.103	517.592125219	13.0
6.1133	517.715902671	6.0
6.1235	517.837903897	14.0
6.1338	517.9605238	10.0
6.144	518.081384088	15.0
6.1542	518.201680672	10.0
6.1645	518.322587289	14.0
6.1747	518.441758877	14.0
6.185	518.561534794	8.0
6.1952	518.679591907	9.0
6.2054	518.797098389	12.0
6.2157	518.915200757	14.0
6.2259	519.031608337	8.0
6.2362	519.148606229	6.0
6.2464	519.263925182	6.0
6.2566	519.378706276	7.0
6.2669	519.494069435	6.0
6.2771	519.607777113	6.0
6.2874	519.722061413	10.0
6.2976	519.834705714	7.0
6.3078	519.946824631	2.0
6.3181	520.059512112	3.0
6.3283	520.17058251	9.0
6.3386	520.282216155	7.0
6.3488	520.392247838	5.0
6.359	520.501766323	9.0
6.3693	520.611840186	2.0
6.3795	520.72033447	5.0
6.3898	520.829378938	6.0
6.4	520.9368586	3.0
6.4102	521.043836966	3.0
6.4205	521.151357829	5.0
6.4307	521.257335749	4.0
6.441	521.363851092	1.0
6.4512	521.468837923	5.0
6.4614	521.573335085	4.0
6.4717	521.67836216	6.0
6.4819	521.78188208	7.0
6.4922	521.885926958	10.0
6.5024	521.988478775	6.0
6.5126	522.09055228	4.0
6.5229	522.193143408	4.0
6.5331	522.294262337	4.0
6.5434	522.395894048	3.0
6.5536	522.496067328	7.0
6.5638	522.595773389	3.0
6.5741	522.695985068	3.0
6.5843	522.794758694	0.0
6.5946	522.894033208	4.0
6.6048	522.991883117	4.0
6.615	523.089276645	6.0
6.6253	523.187164063	4.0
6.6355	523.28364678	5.0
6.6458	523.380618769	3.0
6.656	523.476199195	4.0
6.6662	523.571333824	7.0
6.6765	523.666950888	4.0
6.6867	523.761195833	7.0
6.697	523.8559187	5.0
6.7072	523.94928228	6.0
6.7174	524.042210402	2.0
6.7277	524.135609771	1.0
6.7379	524.227668843	2.0
6.7482	524.320194754	6.0
6.7584	524.411392904	2.0
6.7686	524.502165697	3.0
6.7789	524.593398805	2.0
6.7891	524.683322704	0.0
6.7994	524.773702614	2.0
6.8096	524.862785558	3.0
6.8198	524.95145301	0.0
6.8301	525.040570102	2.0
6.8403	525.12840835	7.0
6.8506	525.216692032	3.0
6.8608	525.303708829	3.0
6.871	525.390319771	4.0
6.8813	525.477369924	3.0
6.8915	525.563170894	0.0
6.9018	525.649406967	3.0
6.912	525.734405539	2.0
6.9222	525.819007668	0.0
6.9325	525.904038823	0.0
6.9427	525.987849766	3.0
6.953	526.072085721	1.0
6.9632	526.155112877	3.0
6.9734	526.237752786	2.0
6.9837	526.320811769	5.0
6.9939	526.402678841	1.0
7.0042	526.484961069	2.0
7.0144	526.566062533	2.0
7.0246	526.646785732	2.0
7.0349	526.727918284	2.0
7.0451	526.807886572	1.0
7.0554	526.888260385	2.0
7.0656	526.967480821	2.0
7.0758	527.046331765	6.0
7.0861	527.125582568	1.0
7.0963	527.20369611	4.0
7.1066	527.282205772	0.0
7.1168	527.359588807	1.0
7.127	527.436610921	3.0
7.1373	527.514023619	0.0
7.1475	527.590325433	2.0
7.1578	527.66701418	1.0
7.168	527.742602431	0.0
7.1782	527.81783813	2.0
7.1885	527.893455356	2.0
7.1987	527.967987463	5.0
7.209	528.042897528	2.0
7.2192	528.116732621	1.0
7.2294	528.19022334	0.0
7.2397	528.264086737	3.0
7.2499	528.336890182	3.0
7.2602	528.410062819	5.0
7.2704	528.482185417	2.0
7.2806	528.553971628	3.0
7.2909	528.626121872	1.0
7.3011	528.697236749	1.0
7.3114	528.768712256	1.0
7.3216	528.839162077	1.0
7.3318	528.909283313	3.0
7.3421	528.97976014	1.0
7.3523	529.049225613	1.0
7.3626	529.119043351	5.0
7.3728	529.187859193	1.0
7.383	529.256354071	3.0
7.3933	529.325196292	1.0
7.4035	529.393050617	0.0
7.4138	529.461249036	3.0
7.424	529.528468797	6.0
7.4342	529.595375038	1.0
7.4445	529.662620566	3.0
7.4547	529.72890111	1.0
7.465	529.795517768	0.0
7.4752	529.861178466	2.0
7.4854	529.926532916	1.0
7.4957	529.992218784	3.0
7.5059	530.056962049	3.0
7.5162	530.122033632	0.0
7.5264	530.186171428	0.0
7.5366	530.250010078	2.0
7.5469	530.31417246	1.0
7.5571	530.377414101	4.0
7.5674	530.440976446	0.0
7.5776	530.50362666	2.0
7.5878	530.565984668	0.0
7.5981	530.628658898	1.0
7.6083	530.690433743	2.0
7.6186	530.752521853	2.0
7.6288	530.813718989	1.0
7.639	530.874630696	2.0
7.6493	530.93585129	2.0
7.6595	530.996193359	3.0
7.6698	531.056841428	0.0
7.68	531.116619187	0.0
7.6902	531.176118136	3.0
7.7005	531.23591881	1.0
7.7107	531.294861334	1.0
7.721	531.354102761	1.0
7.7312	531.412494064	0.0
7.7414	531.470613023	4.0
7.7517	531.529026709	2.0
7.7619	531.586602149	0.0
7.7722	531.644469559	3.0
7.7824	531.701506561	0.0
7.7926	531.758277538	2.0
7.8029	531.815336405	1.0
7.8131	531.871576468	4.0
7.8234	531.928101729	3.0
7.8336	531.983815843	0.0
7.8438	532.039270101	2.0
7.8541	532.095005572	2.0
