TL-DOS Lehrstuhlversuch
detector=R1407302
job_number=2015-10-26-005
irradiation_dose [mSv]=10.0

[BEGIN DATA]
time [sec] 	 temperature [K] 	 photoncount 
0.0	47.5942803115	0.0
0.0102	50.4036495145	1.0
0.0205	53.2242653101	0.0
0.0307	56.0014510124	1.0
0.041	58.789754469	3.0
0.0512	61.5351253576	1.0
0.0614	64.2648024839	0.0
0.0717	67.0054071761	1.0
0.0819	69.7038137363	2.0
0.0922	72.4130226785	2.0
0.1024	75.0805169011	3.0
0.1126	77.7327625391	1.0
0.1229	80.3956257658	0.0
0.1331	83.0174878753	1.0
0.1434	85.6498459408	2.0
0.1536	88.2416725887	3.0
0.1638	90.8186832017	2.0
0.1741	93.406010219	4.0
0.1843	95.9534991789	0.0
0.1946	98.5111863608	1.0
0.2048	101.029491861	1.0
0.215	103.533401606	2.0
0.2253	106.047335115	0.0
0.2355	108.522560634	2.0
0.2458	111.007695087	1.0
0.256	113.45456498	0.0
0.2662	115.887447475	0.0
0.2765	118.330069395	0.0
0.2867	120.735081337	0.0
0.297	123.14972113	0.0
0.3072	125.527181797	2.0
0.3174	127.89105184	0.0
0.3277	130.264385034	0.0
0.3379	132.601175115	0.0
0.3482	134.947319938	1.0
0.3584	137.257340278	0.0
0.3686	139.554155513	1.0
0.3789	141.860165462	0.0
0.3891	144.130668899	0.0
0.3994	146.410261718	0.0
0.4096	148.654754779	0.0
0.4198	150.886417319	0.0
0.4301	153.127013751	0.0
0.4403	155.333110867	0.0
0.4506	157.548039531	0.0
0.4608	159.728864096	0.0
0.471	161.897222097	0.0
0.4813	164.074260566	0.0
0.4915	166.217778346	0.0
0.5018	168.369877153	0.0
0.512	170.488839276	1.0
0.5222	172.595688469	0.0
0.5325	174.710971895	0.0
0.5427	176.793685498	0.0
0.553	178.884736713	0.0
0.5632	180.943591218	0.0
0.5734	182.990676395	0.0
0.5837	185.045956554	0.0
0.5939	187.069590784	0.0
0.6042	189.101326116	0.0
0.6144	191.101778048	0.0
0.6246	193.090794506	0.0
0.6349	195.087773484	0.0
0.6451	197.054004218	0.0
0.6554	199.028106254	0.0
0.6656	200.971812292	0.0
0.6758	202.90440724	0.0
0.6861	204.844738839	1.0
0.6963	206.755194415	0.0
0.7066	208.673298012	0.0
0.7168	210.561867839	0.0
0.727	212.439641761	0.0
0.7373	214.324932871	1.0
0.7475	216.181195437	0.0
0.7578	218.044889077	0.0
0.768	219.879886717	0.0
0.7782	221.704394695	0.0
0.7885	223.536206624	0.0
0.7987	225.339813449	1.0
0.809	227.150640553	0.0
0.8192	228.933585665	0.0
0.8294	230.706338668	1.0
0.8397	232.486188436	0.0
0.8499	234.23863318	0.0
0.8602	235.99809339	0.0
0.8704	237.730462522	0.0
0.8806	239.452928661	1.0
0.8909	241.182290253	0.0
0.9011	242.885024208	0.0
0.9114	244.594574624	0.0
0.9216	246.277802443	0.0
0.9318	247.951408181	0.0
0.9421	249.631713774	1.0
0.9523	251.286147062	3.0
0.9626	252.947203452	2.0
0.9728	254.582683926	1.0
0.983	256.208815265	1.0
0.9933	257.841456406	1.0
1.0035	259.448959151	1.0
1.0138	261.062897122	0.0
1.024	262.651984678	1.0
1.0342	264.231988301	0.0
1.0445	265.818317066	3.0
1.0547	267.380220524	2.0
1.065	268.948376664	2.0
1.0752	270.492387308	3.0
1.0854	272.0275717	1.0
1.0957	273.56890181	2.0
1.1059	275.086499476	1.0
1.1162	276.610172456	2.0
1.1264	278.110384864	1.0
1.1366	279.60202139	1.0
1.1469	281.099629303	0.0
1.1571	282.574177977	4.0
1.1674	284.05462963	1.0
1.1776	285.512286207	5.0
1.1878	286.96161017	3.0
1.1981	288.416736132	2.0
1.2083	289.849456966	4.0
1.2186	291.287913332	8.0
1.2288	292.704221239	4.0
1.239	294.1124329	5.0
1.2493	295.526281976	5.0
1.2595	296.918361481	3.0
1.2698	298.316013821	7.0
1.28	299.692145977	10.0
1.2902	301.060411549	8.0
1.3005	302.434154622	8.0
1.3107	303.786745652	7.0
1.321	305.144751435	7.0
1.3312	306.481847486	7.0
1.3414	307.811300101	11.0
1.3517	309.146074841	14.0
1.3619	310.460297546	15.0
1.3722	311.779781407	12.0
1.3824	313.078948674	14.0
1.3926	314.370689321	16.0
1.4029	315.667601123	19.0
1.4131	316.944543881	17.0
1.4234	318.226598554	22.0
1.4336	319.488912943	22.0
1.4438	320.744011382	17.0
1.4541	322.004134287	16.0
1.4643	323.2448546	25.0
1.4746	324.490541821	17.0
1.4848	325.717048722	28.0
1.495	326.936544364	29.0
1.5053	328.160921945	35.0
1.5155	329.366447319	31.0
1.5258	330.576798707	40.0
1.536	331.768513854	41.0
1.5462	332.953416627	36.0
1.5565	334.143062856	37.0
1.5667	335.314391649	52.0
1.577	336.490409559	57.0
1.5872	337.648319874	69.0
1.5974	338.799611058	59.0
1.6077	339.955511143	78.0
1.6179	341.093613394	64.0
1.6282	342.236271748	83.0
1.6384	343.361336157	82.0
1.6486	344.479969196	100.0
1.6589	345.603080398	105.0
1.6691	346.708898629	105.0
1.6794	347.819143722	130.0
1.6896	348.912293949	126.0
1.6998	349.999195243	142.0
1.7101	351.090447668	132.0
1.7203	352.164897666	146.0
1.7306	353.243648949	159.0
1.7408	354.30579029	187.0
1.751	355.361859957	183.0
1.7613	356.42215733	182.0
1.7715	357.466128901	218.0
1.7818	358.514279746	256.0
1.792	359.546291815	258.0
1.8022	360.572404442	282.0
1.8125	361.60262485	259.0
1.8227	362.616982563	311.0
1.833	363.635400998	338.0
1.8432	364.638138457	367.0
1.8534	365.635143822	379.0
1.8637	366.636140444	397.0
1.8739	367.621724341	423.0
1.8842	368.611253771	450.0
1.8944	369.585547041	473.0
1.9046	370.554270817	503.0
1.9149	371.52687263	516.0
1.9251	372.484498925	549.0
1.9354	373.445958831	564.0
1.9456	374.392614774	569.0
1.9558	375.333859211	676.0
1.9661	376.278871679	664.0
1.9763	377.209333431	708.0
1.9866	378.143520049	750.0
1.9968	379.063322641	824.0
2.007	379.977867232	855.0
2.0173	380.896072969	896.0
2.0275	381.800140743	981.0
2.0378	382.707827721	966.0
2.048	383.601538699	1052.0
2.0582	384.490140826	1067.0
2.0685	385.382300245	1104.0
2.0787	386.260722747	1113.0
2.089	387.142661789	1252.0
2.0992	388.01102128	1222.0
2.1094	388.874416842	1317.0
2.1197	389.741268788	1306.0
2.1299	390.594773485	1400.0
2.1402	391.45169497	1386.0
2.1504	392.29542211	1544.0
2.1606	393.134326129	1545.0
2.1709	393.976588487	1620.0
2.1811	394.805882211	1661.0
2.1914	395.6384958	1642.0
2.2016	396.458289322	1648.0
2.2118	397.27339654	1752.0
2.2221	398.09176683	1781.0
2.2323	398.897536363	1774.0
2.2426	399.706531588	1806.0
2.2528	400.503070407	1789.0
2.263	401.295055854	1768.0
2.2733	402.090211814	1832.0
2.2835	402.873124455	1846.0
2.2938	403.659171287	1863.0
2.304	404.433115057	1789.0
2.3142	405.20263462	1764.0
2.3245	405.975234758	1813.0
2.3347	406.735938878	1784.0
2.345	407.499688284	1744.0
2.3552	408.251677949	1733.0
2.3654	408.999368906	1638.0
2.3757	409.750053054	1749.0
2.3859	410.489178632	1574.0
2.3962	411.231263111	1617.0
2.4064	411.961921433	1508.0
2.4166	412.688402987	1515.0
2.4269	413.417792825	1526.0
2.4371	414.13595197	1432.0
2.4474	414.856986082	1408.0
2.4576	415.566918157	1333.0
2.4678	416.272791945	1340.0
2.4781	416.981491519	1212.0
2.4883	417.679278975	1133.0
2.4986	418.379859846	1137.0
2.5088	419.069653607	1151.0
2.519	419.7555042	1171.0
2.5293	420.44410042	1090.0
2.5395	421.122094063	1045.0
2.5498	421.80280188	1062.0
2.56	422.473028581	1011.0
2.5702	423.139423967	1010.0
2.5805	423.808487097	1044.0
2.5907	424.467248407	1058.0
2.601	425.128646901	999.0
2.6112	425.779861591	1143.0
2.6214	426.427353647	1124.0
2.6317	427.077437773	1168.0
2.6419	427.717512306	1152.0
2.6522	428.360149214	1153.0
2.6624	428.992891198	1183.0
2.6726	429.622016147	1211.0
2.6829	430.253659637	1244.0
2.6931	430.875577472	1234.0
2.7034	431.499984997	1270.0
2.7136	432.114778281	1347.0
2.7238	432.726057134	1321.0
2.7341	433.339783085	1431.0
2.7443	433.944059265	1440.0
2.7546	434.55075451	1487.0
2.7648	435.148108238	1517.0
2.775	435.742047226	1548.0
2.7853	436.338363897	1557.0
2.7955	436.925498854	1594.0
2.8058	437.514984255	1623.0
2.816	438.095393126	1610.0
2.8262	438.672484122	1677.0
2.8365	439.251885354	1806.0
2.8467	439.822365325	1825.0
2.857	440.395129067	1835.0
2.8672	440.959073748	1882.0
2.8774	441.51979467	1936.0
2.8877	442.082760296	1923.0
2.8979	442.637057725	1964.0
2.9082	443.193574143	1989.0
2.9184	443.741521666	1941.0
2.9286	444.286336878	1989.0
2.9389	444.833333117	2022.0
2.9491	445.371907048	2091.0
2.9594	445.912637022	1990.0
2.9696	446.445041172	2057.0
2.9798	446.974401862	2026.0
2.9901	447.505881712	2046.0
3.0003	448.029178166	2090.0
3.0106	448.554569503	2021.0
3.0208	449.07187119	2021.0
3.031	449.58621575	2057.0
3.0413	450.102619357	2063.0
3.0515	450.611071702	2035.0
3.0618	451.121559506	2046.0
3.072	451.624187136	2070.0
3.0822	452.123941522	1997.0
3.0925	452.625696547	2001.0
3.1027	453.119725859	1982.0
3.113	453.615732892	1949.0
3.1232	454.104102716	1931.0
3.1334	454.589680801	1913.0
3.1437	455.077202773	1960.0
3.1539	455.557218185	1944.0
3.1642	456.039155215	1856.0
3.1744	456.513671678	1915.0
3.1846	456.985475594	1862.0
3.1949	457.459168256	1834.0
3.2051	457.925567293	1779.0
3.2154	458.393833438	1776.0
3.2256	458.854889513	1759.0
3.2358	459.313309985	1756.0
3.2461	459.773565626	1757.0
3.2563	460.226734537	1707.0
3.2666	460.681717594	1723.0
3.2768	461.129695103	1730.0
3.287	461.575111774	1701.0
3.2973	462.022311557	1648.0
3.3075	462.462625635	1672.0
3.3178	462.904702398	1735.0
3.328	463.339972336	1663.0
3.3382	463.772754079	1720.0
3.3485	464.207268352	1625.0
3.3587	464.635092244	1683.0
3.369	465.06462882	1634.0
3.3792	465.487551658	1673.0
3.3894	465.90805688	1640.0
3.3997	466.330245488	1650.0
3.4099	466.745933498	1649.0
3.4202	467.163285608	1636.0
3.4304	467.57421159	1684.0
3.4406	467.982788535	1692.0
3.4509	468.393001114	1711.0
3.4611	468.796897494	1673.0
3.4714	469.202410771	1673.0
3.4816	469.601680205	1720.0
3.4918	469.998667237	1728.0
3.5021	470.397243506	1651.0
3.5123	470.789682744	1694.0
3.5226	471.183693013	1689.0
3.5328	471.571636555	1703.0
3.543	471.95736244	1661.0
3.5533	472.34463248	1657.0
3.5635	472.725939576	1672.0
3.5738	473.108773138	1681.0
3.584	473.485712066	1665.0
3.5942	473.860496243	1668.0
3.6045	474.236780773	1683.0
3.6147	474.607271507	1681.0
3.625	474.979245406	1665.0
3.6352	475.345491881	1627.0
3.6454	475.709644729	1716.0
3.6557	476.07525537	1616.0
3.6659	476.435236564	1640.0
3.6762	476.796658852	1670.0
3.6864	477.152516183	1651.0
3.6966	477.506339275	1631.0
3.7069	477.861578808	1656.0
3.7171	478.211348583	1593.0
3.7274	478.562518572	1592.0
3.7376	478.908281463	1595.0
3.7478	479.252067819	1602.0
3.7581	479.597230436	1540.0
3.7683	479.937078453	1569.0
3.7786	480.278286966	1534.0
3.7888	480.614241761	1520.0
3.799	480.948276088	1556.0
3.8093	481.283647637	1572.0
3.8195	481.613855343	1538.0
3.8298	481.945384951	1517.0
3.84	482.271809872	1435.0
3.8502	482.596368802	1524.0
3.8605	482.922227022	1497.0
3.8707	483.243067878	1498.0
3.881	483.56519314	1445.0
3.8912	483.882358515	1515.0
3.9014	484.197710833	1470.0
3.9117	484.514325583	1479.0
3.9219	484.826065295	1451.0
3.9322	485.139052978	1450.0
3.9424	485.447221471	1468.0
3.9526	485.753628335	1396.0
3.9629	486.061261821	1471.0
3.9731	486.364158557	1484.0
3.9834	486.668267863	1373.0
3.9936	486.967694682	1405.0
4.0038	487.265409845	1415.0
4.0141	487.564316834	1354.0
4.0243	487.858621438	1413.0
4.0346	488.154104216	1359.0
4.0448	488.445037334	1396.0
4.055	488.734307348	1365.0
4.0653	489.024735381	1413.0
4.0755	489.310691583	1294.0
4.0858	489.597792537	1307.0
4.096	489.88047289	1373.0
4.1062	490.161537315	1331.0
4.1165	490.44372691	1370.0
4.1267	490.721571525	1346.0
4.137	491.00052842	1307.0
4.1472	491.275190109	1271.0
4.1574	491.54828171	1331.0
4.1677	491.822466563	1361.0
4.1779	492.092429688	1337.0
4.1882	492.363473542	1315.0
4.1984	492.63034403	1314.0
4.2086	492.895688968	1318.0
4.2189	493.162096147	1351.0
4.2291	493.424401353	1335.0
4.2394	493.68775663	1267.0
4.2496	493.947056927	1312.0
4.2598	494.204874948	1397.0
4.2701	494.463725077	1312.0
4.2803	494.718589593	1345.0
4.2906	494.974474393	1385.0
4.3008	495.226419238	1324.0
4.311	495.476923854	1277.0
4.3213	495.728431302	1385.0
4.3315	495.976066194	1322.0
4.3418	496.224692428	1393.0
4.352	496.469490471	1364.0
4.3622	496.712889138	1287.0
4.3725	496.95726219	1301.0
4.3827	497.197872538	1288.0
4.393	497.439446107	1324.0
4.4032	497.677300076	1271.0
4.4134	497.913794367	1349.0
4.4237	498.151235401	1379.0
4.4339	498.385020466	1261.0
4.4442	498.61974143	1266.0
4.4544	498.850848306	1331.0
4.4646	499.080634072	1332.0
4.4749	499.311339727	1325.0
4.4851	499.538493119	1312.0
4.4954	499.766555861	1301.0
4.5056	499.991107035	1174.0
4.5158	500.214374575	1293.0
4.5261	500.438535909	1279.0
4.5363	500.659245746	1276.0
4.5466	500.880839138	1229.0
4.5568	501.099020573	1277.0
4.567	501.315954786	1257.0
4.5773	501.533757439	1188.0
4.5875	501.748206502	1214.0
4.5978	501.963514057	1115.0
4.608	502.17550644	1154.0
4.6182	502.38628698	1165.0
4.6285	502.597911326	1163.0
4.6387	502.806277212	1165.0
4.649	503.015477237	1098.0
4.6592	503.22145613	1094.0
4.6694	503.426257556	1115.0
4.6797	503.631878853	1088.0
4.6899	503.83433412	1016.0
4.7002	504.037599865	1045.0
4.7104	504.23773585	998.0
4.7206	504.436727768	1060.0
4.7309	504.6365163	977.0
4.7411	504.833228612	993.0
4.7514	505.030728412	909.0
4.7616	505.225187232	912.0
4.7718	505.418534439	860.0
4.7821	505.612655662	889.0
4.7923	505.803787927	826.0
4.8026	505.995685341	855.0
4.8128	506.184628038	875.0
4.823	506.372490654	836.0
4.8333	506.561105331	792.0
4.8435	506.746815835	774.0
4.8538	506.933269784	774.0
4.864	507.116852831	762.0
4.8742	507.299386435	715.0
4.8845	507.482650766	728.0
4.8947	507.663093306	636.0
4.905	507.844258202	684.0
4.9152	508.022633634	659.0
4.9254	508.199989392	578.0
4.9357	508.378055148	606.0
4.9459	508.553379159	585.0
4.9562	508.729405034	557.0
4.9664	508.902720572	543.0
4.9766	509.075045361	519.0
4.9869	509.248060009	509.0
4.9971	509.418410684	515.0
5.0074	509.589443315	461.0
5.0176	509.757842491	422.0
5.0278	509.925279022	432.0
5.0381	510.093385843	422.0
5.0483	510.25890426	421.0
5.0586	510.425085287	374.0
5.0688	510.588707562	363.0
5.079	510.751394499	385.0
5.0893	510.914732712	353.0
5.0995	511.075555944	333.0
5.1098	511.23702299	339.0
5.12	511.396003868	281.0
5.1302	511.55407594	315.0
5.1405	511.712780813	298.0
5.1507	511.869042047	248.0
5.161	512.025928833	256.0
5.1712	512.180399973	244.0
5.1814	512.333988087	224.0
5.1917	512.488191053	225.0
5.2019	512.640019697	218.0
5.2122	512.792456148	204.0
5.2224	512.942545477	226.0
5.2326	513.091776828	182.0
5.2429	513.241605589	189.0
5.2531	513.38912738	189.0
5.2634	513.537239737	153.0
5.2736	513.683071551	162.0
5.2838	513.828069726	145.0
5.2941	513.973648364	118.0
5.3043	514.116985473	138.0
5.3146	514.260896395	123.0
5.3248	514.402591465	112.0
5.335	514.543476544	122.0
5.3453	514.68492562	125.0
5.3555	514.824196751	110.0
5.3658	514.964025419	131.0
5.376	515.101701091	107.0
5.3862	515.238589748	84.0
5.3965	515.376026403	73.0
5.4067	515.511346895	79.0
5.417	515.647209107	72.0
5.4272	515.780979397	77.0
5.4374	515.913984997	69.0
5.4477	516.04752305	54.0
5.4579	516.179004968	62.0
5.4682	516.31101324	50.0
5.4784	516.44098893	52.0
5.4886	516.570221621	61.0
5.4989	516.699971663	55.0
5.5091	516.827723893	55.0
5.5194	516.955987547	51.0
5.5296	517.082276277	41.0
5.5398	517.207843085	38.0
5.5501	517.333912567	48.0
5.5603	517.458040909	37.0
5.5706	517.582666168	37.0
5.5808	517.705372524	38.0
5.591	517.827377435	29.0
5.6013	517.949870763	41.0
5.6115	518.070478014	31.0
5.6218	518.191568085	26.0
5.632	518.310793687	29.0
5.6422	518.429337742	37.0
5.6525	518.548356357	40.0
5.6627	518.665542398	27.0
5.673	518.783197564	22.0
5.6832	518.899041148	33.0
5.6934	519.014222518	26.0
5.7037	519.129864988	20.0
5.7139	519.243726867	21.0
5.7242	519.358044562	18.0
5.7344	519.470602065	21.0
5.7446	519.582516139	17.0
5.7549	519.694878232	20.0
5.7651	519.805510244	17.0
5.7754	519.916585142	17.0
5.7856	520.025949778	12.0
5.7958	520.134689237	15.0
5.8061	520.243864007	19.0
5.8163	520.351357772	23.0
5.8266	520.45928186	21.0
5.8368	520.5655442	16.0
5.847	520.671199097	18.0
5.8573	520.777276957	19.0
5.8675	520.881721495	19.0
5.8778	520.986584151	22.0
5.888	521.089832196	17.0
5.8982	521.19249003	12.0
5.9085	521.295558828	13.0
5.9187	521.397040636	18.0
5.929	521.498928702	7.0
5.9392	521.599247957	16.0
5.9494	521.698993744	14.0
5.9597	521.799138837	16.0
5.9699	521.897741958	16.0
5.9802	521.996739811	13.0
5.9904	522.094213357	10.0
6.0006	522.191129701	15.0
6.0109	522.288434025	10.0
6.0211	522.384240117	12.0
6.0314	522.480429744	7.0
6.0416	522.575138303	9.0
6.0518	522.669305465	13.0
6.0621	522.763849602	16.0
6.0723	522.856938007	11.0
6.0826	522.950399068	7.0
6.0928	523.042421073	11.0
6.103	523.133917039	16.0
6.1133	523.225779286	5.0
6.1235	523.316227095	16.0
6.1338	523.407036989	10.0
6.144	523.496448649	13.0
6.1542	523.585349191	12.0
6.1645	523.674605624	11.0
6.1747	523.762487742	8.0
6.185	523.850721674	6.0
6.1952	523.937597034	6.0
6.2054	524.023975776	8.0
6.2157	524.110700313	10.0
6.2259	524.19608952	9.0
6.2362	524.28182056	16.0
6.2464	524.366231567	9.0
6.2566	524.450160044	6.0
6.2669	524.534424506	14.0
6.2771	524.617391517	9.0
6.2874	524.700690664	4.0
6.2976	524.782707223	12.0
6.3078	524.864254939	8.0
6.3181	524.946129111	8.0
6.3283	525.026742634	8.0
6.3386	525.107678874	5.0
6.3488	525.187368907	10.0
6.359	525.266603397	6.0
6.3693	525.346155081	11.0
6.3795	525.424481878	3.0
6.3898	525.503122237	11.0
6.4	525.58055174	11.0
6.4102	525.657538621	10.0
6.4205	525.7348337	11.0
6.4307	525.810938637	8.0
6.441	525.887348241	12.0
6.4512	525.962581337	6.0
6.4614	526.037384367	9.0
6.4717	526.112486852	9.0
6.4819	526.186432956	10.0
6.4922	526.260675084	7.0
6.5024	526.333774077	6.0
6.5126	526.406455205	6.0
6.5229	526.479427292	6.0
6.5331	526.551275801	5.0
6.5434	526.623411937	6.0
6.5536	526.694437365	4.0
6.5638	526.76505678	8.0
6.5741	526.835958903	6.0
6.5843	526.905769318	15.0
6.5946	526.975859201	4.0
6.6048	527.044869884	6.0
6.615	527.113486071	10.0
6.6253	527.182376946	6.0
6.6355	527.250207081	8.0
6.6458	527.318308757	13.0
6.656	527.385361846	9.0
6.6662	527.452031629	7.0
6.6765	527.518968308	8.0
6.6867	527.584874338	10.0
6.697	527.651044205	12.0
6.7072	527.71619523	7.0
6.7174	527.780973822	5.0
6.7277	527.846011739	4.0
6.7379	527.910048243	4.0
6.7482	527.9743411	5.0
6.7584	528.037644016	8.0
6.7686	528.100585064	10.0
6.7789	528.163778081	7.0
6.7891	528.225998091	8.0
6.7994	528.288467182	7.0
6.8096	528.349974413	7.0
6.8198	528.411130042	7.0
6.8301	528.472530492	10.0
6.8403	528.532985535	7.0
6.8506	528.593682595	9.0
6.8608	528.653445079	7.0
6.871	528.712865934	11.0
6.8813	528.772524665	7.0
6.8915	528.831264809	8.0
6.9018	528.890240103	11.0
6.912	528.948307332	6.0
6.9222	529.006042624	9.0
6.9325	529.064009043	8.0
6.9427	529.121082932	11.0
6.953	529.178385301	6.0
6.9632	529.234805365	7.0
6.9734	529.290902906	4.0
6.9837	529.347225019	4.0
6.9939	529.402679919	6.0
7.0042	529.458356818	5.0
7.0144	529.51317644	3.0
7.0246	529.567682688	5.0
7.0349	529.622407137	5.0
7.0451	529.676288974	5.0
7.0554	529.730386513	4.0
7.0656	529.783651091	4.0
7.0758	529.836611186	3.0
7.0861	529.889783292	5.0
7.0963	529.942136688	8.0
7.1066	529.994699667	6.0
7.1168	530.046453314	4.0
7.127	530.097911114	6.0
7.1373	530.149574912	4.0
7.1475	530.200443223	13.0
7.1578	530.251515172	9.0
7.168	530.301800747	6.0
7.1782	530.351798867	5.0
7.1885	530.401997142	4.0
7.1987	530.451422495	8.0
7.209	530.50104571	7.0
7.2192	530.549904858	2.0
7.2294	530.598484704	2.0
7.2397	530.647259028	5.0
7.2499	530.695282355	7.0
7.2602	530.743497931	6.0
7.2704	530.790971114	7.0
7.2806	530.838172918	4.0
7.2909	530.885563684	11.0
7.3011	530.932224755	9.0
7.3114	530.979072622	8.0
7.3216	531.025199155	4.0
7.3318	531.071062008	3.0
7.3421	531.117108461	6.0
7.3523	531.16244592	7.0
7.3626	531.207964875	6.0
7.3728	531.252782958	3.0
7.383	531.29734484	2.0
7.3933	531.342085115	3.0
7.4035	531.386136507	4.0
7.4138	531.430364247	5.0
7.424	531.473910996	8.0
7.4342	531.517208812	2.0
7.4445	531.56067996	10.0
7.4547	531.603481767	3.0
7.465	531.646454919	8.0
7.4752	531.688766397	5.0
7.4854	531.730836005	2.0
7.4957	531.773074027	4.0
7.5059	531.814661694	5.0
7.5162	531.856415847	9.0
7.5264	531.897527095	6.0
7.5366	531.938403333	7.0
7.5469	531.979443209	6.0
7.5571	532.019851178	8.0
7.5674	532.06042091	5.0
7.5776	532.100365975	5.0
7.5878	532.140082695	5.0
7.5981	532.179958412	4.0
7.6083	532.219220147	7.0
7.6186	532.258639056	7.0
7.6288	532.297451018	4.0
7.639	532.336041112	2.0
7.6493	532.374785693	5.0
7.6595	532.412933708	4.0
7.6698	532.45123444	5.0
7.68	532.48894544	4.0
7.6902	532.526440868	1.0
7.7005	532.564086399	4.0
7.7107	532.601152287	8.0
7.721	532.638366559	6.0
7.7312	532.675007829	8.0
