TL-DOS Lehrstuhlversuch
detector=R1408103
job_number=2015-10-26-006
irradiation_dose [mSv]=0.5

[BEGIN DATA]
time [sec] 	 temperature [K] 	 photoncount 
0.0	167.079599443	0.0
0.0102	168.50983738	0.0
0.0205	169.948837431	2.0
0.0307	171.368676788	1.0
0.041	172.797214555	1.0
0.0512	174.206730936	0.0
0.0614	175.611139003	0.0
0.0717	177.024150943	1.0
0.0819	178.418348227	0.0
0.0922	179.82108683	3.0
0.1024	181.205147569	0.0
0.1126	182.584192251	0.0
0.1229	183.97168542	0.0
0.1331	185.340703724	1.0
0.1434	186.718109091	1.0
0.1536	188.077173914	1.0
0.1638	189.431313268	2.0
0.1741	190.793748532	2.0
0.1843	192.138042584	2.0
0.1946	193.490572229	1.0
0.2048	194.825092559	1.0
0.215	196.154776372	1.0
0.2253	197.492606272	0.0
0.2355	198.812622587	4.0
0.2458	200.140725763	0.0
0.256	201.451144868	0.0
0.2662	202.756814804	0.0
0.2765	204.070483709	1.0
0.2867	205.36666074	0.0
0.297	206.670778584	0.0
0.3072	207.957531729	0.0
0.3174	209.239621474	0.0
0.3277	210.529565728	0.0
0.3379	211.802334009	0.0
0.3482	213.082899693	0.0
0.3584	214.346414281	0.0
0.3686	215.605349689	0.0
0.3789	216.871997756	0.0
0.3891	218.121780044	0.0
0.3994	219.379218916	1.0
0.4096	220.619914632	0.0
0.4198	221.856113867	0.0
0.4301	223.099886472	0.0
0.4403	224.327097891	0.0
0.4506	225.561827617	1.0
0.4608	226.780116566	0.0
0.471	227.993990241	0.0
0.4813	229.21530051	0.0
0.4915	230.420348687	0.0
0.5018	231.632779391	0.0
0.512	232.829066236	0.0
0.5222	234.021017545	0.0
0.5325	235.220271146	0.0
0.5427	236.403556345	0.0
0.553	237.594090744	0.0
0.5632	238.768772839	0.0
0.5734	239.939197698	0.0
0.5837	241.11679297	0.0
0.5939	242.278708226	0.0
0.6042	243.447741764	0.0
0.6144	244.601209288	1.0
0.6246	245.75049646	0.0
0.6349	246.906824549	0.0
0.6451	248.047755801	0.0
0.6554	249.19567678	0.0
0.6656	250.328312864	1.0
0.6758	251.456844093	0.0
0.6861	252.592289081	0.0
0.6963	253.712615297	0.0
0.7066	254.839805005	1.0
0.7168	255.951985862	0.0
0.727	257.060135997	0.0
0.7373	258.17507503	0.0
0.7475	259.275168333	0.0
0.7578	260.382001175	0.0
0.768	261.474096223	0.0
0.7782	262.562233343	0.0
0.7885	263.657036754	1.0
0.7987	264.737262548	0.0
0.809	265.824106165	1.0
0.8192	266.89647815	0.0
0.8294	267.964963688	0.0
0.8397	269.039995124	0.0
0.8499	270.100712212	0.0
0.8602	271.167927606	0.0
0.8704	272.220932725	1.0
0.8806	273.270121584	0.0
0.8909	274.325738124	0.0
0.9011	275.36729883	0.0
0.9114	276.415240484	0.0
0.9216	277.449228498	0.0
0.9318	278.479469174	0.0
0.9421	279.516021447	1.0
0.9523	280.538771733	1.0
0.9626	281.567787728	0.0
0.9728	282.583102084	0.0
0.983	283.594736777	1.0
0.9933	284.612569081	1.0
1.0035	285.61684866	1.0
1.0138	286.627280791	0.0
1.024	287.62425873	0.0
1.0342	288.617623462	2.0
1.0445	289.617073878	1.0
1.0547	290.603216327	0.0
1.065	291.595400215	1.0
1.0752	292.574372892	0.0
1.0854	293.549797615	0.0
1.0957	294.531198115	0.0
1.1059	295.499530989	1.0
1.1162	296.473796194	0.0
1.1264	297.43508878	0.0
1.1366	298.392897488	0.0
1.1469	299.356574052	0.0
1.1571	300.307418989	0.0
1.1674	301.264089119	0.0
1.1776	302.208020915	0.0
1.1878	303.14853175	0.0
1.1981	304.094804469	0.0
1.2083	305.028477298	1.0
1.2186	305.967870118	0.0
1.2288	306.894754656	0.0
1.239	307.818280016	0.0
1.2493	308.7474632	1.0
1.2595	309.664274046	0.0
1.2698	310.586701582	2.0
1.28	311.496846733	1.0
1.2902	312.403693372	0.0
1.3005	313.316095656	3.0
1.3107	314.216349044	0.0
1.321	315.122117686	0.0
1.3312	316.01582576	0.0
1.3414	316.906294893	1.0
1.3517	317.802219338	0.0
1.3619	318.686214294	0.0
1.3722	319.575624898	1.0
1.3824	320.453192747	0.0
1.3926	321.327580149	0.0
1.4029	322.207324341	1.0
1.4131	323.075354489	0.0
1.4234	323.948702479	1.0
1.4336	324.810421593	0.0
1.4438	325.669017698	1.0
1.4541	326.53287385	1.0
1.4643	327.385227512	1.0
1.4746	328.242802977	2.0
1.4848	329.088959581	0.0
1.495	329.932049578	2.0
1.5053	330.780304625	3.0
1.5155	331.617264915	2.0
1.5258	332.459352704	0.0
1.536	333.290227855	0.0
1.5462	334.11809178	1.0
1.5565	334.951027477	3.0
1.5667	335.772872398	2.0
1.577	336.599752215	3.0
1.5872	337.415621893	3.0
1.5974	338.228534728	5.0
1.6077	339.046427739	0.0
1.6179	339.853430272	1.0
1.6282	340.665376771	3.0
1.6384	341.466511973	2.0
1.6486	342.264743732	3.0
1.6589	343.067865725	0.0
1.6691	343.860293921	3.0
1.6794	344.657576796	5.0
1.6896	345.444243624	1.0
1.6998	346.228059444	2.0
1.7101	347.016677182	3.0
1.7203	347.794794251	1.0
1.7306	348.577678325	4.0
1.7408	349.350138075	3.0
1.751	350.119798307	4.0
1.7613	350.894173734	4.0
1.7715	351.658238132	4.0
1.7818	352.426983445	2.0
1.792	353.185492695	2.0
1.8022	353.941252985	7.0
1.8125	354.701643316	10.0
1.8227	355.451908833	2.0
1.833	356.206770728	4.0
1.8432	356.951581422	3.0
1.8534	357.693692802	11.0
1.8637	358.440350604	5.0
1.8739	359.177066446	8.0
1.8842	359.918295655	8.0
1.8944	360.649655187	4.0
1.9046	361.378364154	10.0
1.9149	362.111537435	9.0
1.9251	362.834948306	6.0
1.9354	363.562791034	13.0
1.9456	364.280942329	9.0
1.9558	364.996490928	6.0
1.9661	365.716423217	11.0
1.9763	366.426769403	17.0
1.9866	367.141467407	12.0
1.9968	367.846649004	11.0
2.007	368.54927491	11.0
2.0173	369.256205336	13.0
2.0275	369.953722783	13.0
2.0378	370.655513455	14.0
2.048	371.347959585	22.0
2.0582	372.037896179	17.0
2.0685	372.732059555	14.0
2.0787	373.416979948	17.0
2.089	374.106096392	18.0
2.0992	374.786037055	27.0
2.1094	375.463513504	25.0
2.1197	376.1451404	23.0
2.1299	376.81769124	16.0
2.1402	377.494362351	27.0
2.1504	378.162023394	22.0
2.1606	378.827264726	33.0
2.1709	379.496581549	37.0
2.1811	380.156986228	23.0
2.1914	380.821436767	30.0
2.2016	381.477039958	32.0
2.2118	382.130267138	27.0
2.2221	382.787496206	34.0
2.2323	383.435974082	36.0
2.2426	384.088424749	32.0
2.2528	384.732187851	30.0
2.263	385.373617852	40.0
2.2733	386.018977468	37.0
2.2835	386.655743937	53.0
2.2938	387.29641145	59.0
2.304	387.928548293	47.0
2.3142	388.55839417	51.0
2.3245	389.192098694	47.0
2.3347	389.817365262	61.0
2.345	390.446462421	56.0
2.3552	391.067182974	64.0
2.3654	391.685653935	63.0
2.3757	392.307913856	53.0
2.3859	392.921888209	69.0
2.3962	393.539623975	55.0
2.4064	394.149134413	89.0
2.4166	394.756435887	73.0
2.4269	395.367457893	62.0
2.4371	395.970343968	70.0
2.4474	396.576923524	62.0
2.4576	397.1754263	78.0
2.4678	397.771760007	81.0
2.4781	398.371747053	75.0
2.4883	398.963745101	68.0
2.4986	399.559369927	82.0
2.5088	400.147063839	77.0
2.519	400.732627854	88.0
2.5293	401.321779229	107.0
2.5395	401.903085887	82.0
2.5498	402.487953823	95.0
2.56	403.065034077	86.0
2.5702	403.640022899	87.0
2.5805	404.218534295	76.0
2.5907	404.789342647	95.0
2.601	405.363647961	90.0
2.6112	405.930306238	72.0
2.6214	406.494910853	82.0
2.6317	407.062974425	77.0
2.6419	407.62347407	80.0
2.6522	408.187407522	95.0
2.6624	408.74383204	79.0
2.6726	409.298239986	82.0
2.6829	409.856044421	72.0
2.6931	410.406421531	86.0
2.7034	410.960170435	73.0
2.7136	411.506546015	70.0
2.7238	412.050941442	72.0
2.7341	412.598672017	78.0
2.7443	413.139109404	59.0
2.7546	413.682857691	60.0
2.7648	414.219365815	62.0
2.775	414.753929548	50.0
2.7853	415.291768196	59.0
2.7955	415.822445371	46.0
2.8058	416.35637365	55.0
2.816	416.883192523	72.0
2.8262	417.40810212	49.0
2.8365	417.936227488	45.0
2.8467	418.457320717	49.0
2.857	418.981606337	50.0
2.8672	419.498910945	42.0
2.8774	420.014340758	49.0
2.8877	420.532928266	56.0
2.8979	421.044610635	59.0
2.9082	421.55942774	44.0
2.9184	422.067389909	46.0
2.9286	422.573511142	47.0
2.9389	423.082733043	45.0
2.9491	423.585174509	48.0
2.9594	424.090694099	47.0
2.9696	424.589482553	51.0
2.9798	425.086463317	48.0
2.9901	425.586488751	54.0
3.0003	426.079856205	53.0
3.0106	426.576246192	47.0
3.0208	427.066026605	57.0
3.031	427.554031976	60.0
3.0413	428.04502703	48.0
3.0515	428.529484346	61.0
3.0618	429.01690961	57.0
3.072	429.497844667	64.0
3.0822	429.977036738	52.0
3.0925	430.459164501	56.0
3.1027	430.934872595	81.0
3.113	431.413495035	61.0
3.1232	431.885744482	59.0
3.1334	432.356282421	49.0
3.1437	432.829703033	75.0
3.1539	433.296819914	72.0
3.1642	433.76679851	81.0
3.1744	434.230519207	75.0
3.1846	434.692559306	78.0
3.1949	435.157430017	75.0
3.2051	435.616110842	72.0
3.2154	436.077601699	83.0
3.2256	436.532947675	67.0
3.2358	436.986643403	76.0
3.2461	437.443118623	86.0
3.2563	437.893515745	71.0
3.2666	438.346672151	96.0
3.2768	438.793794651	82.0
3.287	439.239296707	71.0
3.2973	439.687528057	83.0
3.3075	440.129791079	89.0
3.3178	440.574763553	95.0
3.328	441.013811091	88.0
3.3382	441.451267451	88.0
3.3485	441.891403814	99.0
3.3587	442.325679637	86.0
3.369	442.762615978	89.0
3.3792	443.193734388	95.0
3.3894	443.623290356	110.0
3.3997	444.055477927	100.0
3.4099	444.481910797	89.0
3.4202	444.910956138	107.0
3.4304	445.334288618	82.0
3.4406	445.756086873	89.0
3.4509	446.180469206	90.0
3.4611	446.599200767	83.0
3.4714	447.020497617	100.0
3.4816	447.43618478	99.0
3.4918	447.850365426	69.0
3.5021	448.267083481	93.0
3.5123	448.678252817	77.0
3.5226	449.091941113	92.0
3.5328	449.500121032	93.0
3.543	449.906821642	74.0
3.5533	450.316013835	70.0
3.5635	450.719757518	89.0
3.5738	451.12597467	99.0
3.584	451.526782925	86.0
3.5942	451.926138586	91.0
3.6045	452.327940834	69.0
3.6147	452.72439297	74.0
3.625	453.123273905	82.0
3.6352	453.516843626	80.0
3.6454	453.908986988	82.0
3.6557	454.303532751	95.0
3.6659	454.692825025	77.0
3.6762	455.084502234	70.0
3.6864	455.470964149	84.0
3.6966	455.856025464	63.0
3.7069	456.243445794	63.0
3.7171	456.625707511	80.0
3.7274	457.010311092	67.0
3.7376	457.389793567	69.0
3.7478	457.767900736	75.0
3.7581	458.148324316	60.0
3.7683	458.523682448	71.0
3.7786	458.901340149	85.0
3.7888	459.273969231	72.0
3.799	459.645247845	76.0
3.8093	460.018801036	70.0
3.8195	460.38738026	70.0
3.8298	460.758217523	89.0
3.84	461.124116983	64.0
3.8502	461.488690364	69.0
3.8605	461.855497244	70.0
3.8707	462.217419986	59.0
3.881	462.581559988	59.0
3.8912	462.940851362	74.0
3.9014	463.298840606	79.0
3.9117	463.659023012	71.0
3.9219	464.014409487	72.0
3.9322	464.371973178	73.0
3.9424	464.724775807	81.0
3.9526	465.076299822	72.0
3.9629	465.429977392	70.0
3.9731	465.778945643	82.0
3.9834	466.130051791	80.0
3.9936	466.476482861	87.0
4.0038	466.821658409	74.0
4.0141	467.168948618	74.0
4.0243	467.511614558	80.0
4.0346	467.856379785	65.0
4.0448	468.196554365	73.0
4.055	468.535496098	73.0
4.0653	468.8765143	91.0
4.0755	469.212991749	74.0
4.0858	469.551530571	67.0
4.096	469.885561652	79.0
4.1062	470.218382151	70.0
4.1165	470.553241619	76.0
4.1267	470.883642339	70.0
4.137	471.216067203	71.0
4.1472	471.544065736	85.0
4.1574	471.87087555	74.0
4.1677	472.19968751	75.0
4.1779	472.524121245	90.0
4.1882	472.85054257	86.0
4.1984	473.172617501	66.0
4.2086	473.493525182	71.0
4.2189	473.81639885	81.0
4.2291	474.134973364	73.0
4.2394	474.455499571	86.0
4.2496	474.771757881	70.0
4.2598	475.08687002	61.0
4.2701	475.403912642	70.0
4.2803	475.71673375	76.0
4.2906	476.031471305	57.0
4.3008	476.342018041	66.0
4.311	476.651439305	65.0
4.3213	476.962756187	68.0
4.3315	477.269927796	71.0
4.3418	477.578981241	73.0
4.352	477.883919552	68.0
4.3622	478.187752717	74.0
4.3725	478.493447266	60.0
4.3827	478.795071405	65.0
4.393	479.098543394	74.0
4.4032	479.397974568	66.0
4.4134	479.696320555	61.0
4.4237	479.996494309	82.0
4.4339	480.292671164	68.0
4.4442	480.590662497	69.0
4.4544	480.884685991	65.0
4.4646	481.177643897	72.0
4.4749	481.472396561	83.0
4.4851	481.763224509	53.0
4.4954	482.055834167	57.0
4.5056	482.344547644	70.0
4.5158	482.632214777	58.0
4.5261	482.921644254	62.0
4.5363	483.207219896	67.0
4.5466	483.49454507	75.0
4.5568	483.778044427	72.0
4.567	484.060516337	62.0
4.5773	484.344718765	78.0
4.5875	484.625136956	76.0
4.5978	484.907273083	74.0
4.608	485.185652487	63.0
4.6182	485.463023	66.0
4.6285	485.742092777	54.0
4.6387	486.01744666	60.0
4.649	486.294487454	55.0
4.6592	486.56783937	58.0
4.6694	486.840200616	55.0
4.6797	487.114230437	70.0
4.6899	487.384611473	60.0
4.7002	487.656648954	53.0
4.7104	487.925064179	65.0
4.7206	488.192506623	61.0
4.7309	488.46158751	64.0
4.7411	488.727085507	51.0
4.7514	488.994210035	56.0
4.7616	489.257777723	64.0
4.7718	489.5203902	55.0
4.7821	489.784611528	58.0
4.7923	490.045314675	63.0
4.8026	490.307614975	52.0
4.8128	490.566422673	49.0
4.823	490.824292411	53.0
4.8333	491.083741944	43.0
4.8435	491.339736833	60.0
4.8538	491.597300032	61.0
4.864	491.851433705	64.0
4.8742	492.104646355	74.0
4.8845	492.359410272	64.0
4.8947	492.610781934	35.0
4.905	492.863693583	38.0
4.9152	493.113237641	52.0
4.9254	493.361877312	54.0
4.9357	493.612040232	59.0
4.9459	493.858872163	63.0
4.9562	494.107216267	63.0
4.9664	494.3522536	62.0
4.9766	494.596402878	55.0
4.9869	494.842047896	50.0
4.9971	495.084422081	53.0
5.0074	495.328281131	48.0
5.0176	495.568893128	44.0
5.0278	495.808633109	69.0
5.0381	496.049841817	62.0
5.0483	496.287838763	59.0
5.0586	496.527293757	55.0
5.0688	496.76356034	55.0
5.079	496.998970655	71.0
5.0893	497.235823173	52.0
5.0995	497.469521931	51.0
5.1098	497.704652407	52.0
5.12	497.936652053	51.0
5.1302	498.167810895	57.0
5.1405	498.400385894	60.0
5.1507	498.62986409	45.0
5.161	498.860748147	59.0
5.1712	499.088557916	48.0
5.1814	499.315542067	54.0
5.1917	499.543916798	47.0
5.2019	499.769250655	42.0
5.2122	499.995964982	48.0
5.2224	500.219660544	61.0
5.2326	500.442545397	58.0
5.2429	500.666795716	54.0
5.2531	500.88806008	70.0
5.2634	501.110679982	53.0
5.2736	501.330335638	53.0
5.2838	501.549195226	49.0
5.2941	501.769395621	44.0
5.3043	501.986663985	59.0
5.3146	502.205263407	66.0
5.3248	502.420952116	54.0
5.335	502.635859135	55.0
5.3453	502.852082746	52.0
5.3555	503.065427278	52.0
5.3658	503.28007883	49.0
5.376	503.491872236	51.0
5.3862	503.702898068	42.0
5.3965	503.915216715	47.0
5.4067	504.124708279	51.0
5.417	504.335483258	49.0
5.4272	504.543451708	49.0
5.4374	504.750666447	51.0
5.4477	504.959150653	52.0
5.4579	505.164858833	66.0
5.4682	505.37182725	41.0
5.4784	505.576039823	40.0
5.4886	505.779512297	54.0
5.4989	505.984231312	44.0
5.5091	506.186224434	49.0
5.5194	506.389455034	53.0
5.5296	506.589979561	49.0
5.5398	506.789777355	45.0
5.5501	506.990799176	45.0
5.5603	507.189144335	39.0
5.5706	507.388704623	33.0
5.5808	507.585607709	30.0
5.591	507.781797186	41.0
5.6013	507.979188586	34.0
5.6115	508.173951663	46.0
5.6218	508.369907924	45.0
5.632	508.563254971	31.0
5.6422	508.755901298	35.0
5.6525	508.949727841	37.0
5.6627	509.140973528	41.0
5.673	509.333390849	36.0
5.6832	509.52324608	23.0
5.6934	509.712413245	34.0
5.7037	509.902739311	32.0
5.7139	510.090531131	31.0
5.7242	510.279473427	23.0
5.7344	510.465899902	34.0
5.7446	510.651650738	27.0
5.7549	510.838539546	36.0
5.7651	511.022939876	28.0
5.7754	511.208469904	36.0
5.7856	511.391529547	30.0
5.7958	511.573925752	32.0
5.8061	511.757439378	28.0
5.8163	511.938509467	31.0
5.8266	512.120688853	25.0
5.8368	512.300442468	26.0
5.847	512.479544627	38.0
5.8573	512.659744025	20.0
5.8675	512.837544018	22.0
5.8778	513.016433272	23.0
5.888	513.192940566	19.0
5.8982	513.368808168	19.0
5.9085	513.545753195	29.0
5.9187	513.720342148	15.0
5.929	513.896000691	22.0
5.9392	514.069320291	13.0
5.9494	514.242011752	15.0
5.9597	514.41576118	29.0
5.9699	514.587197084	26.0
5.9802	514.759683262	19.0
5.9904	514.929872737	19.0
6.0006	515.099445419	14.0
6.0109	515.270056959	23.0
6.0211	515.438396758	18.0
6.0314	515.607767863	9.0
6.0416	515.774883744	17.0
6.0518	515.94139397	16.0
6.0621	516.108924293	12.0
6.0723	516.274223902	8.0
6.0826	516.440536192	11.0
6.0928	516.604633987	14.0
6.103	516.768137064	5.0
6.1133	516.932641817	11.0
6.1235	517.094956141	9.0
6.1338	517.258264858	15.0
6.144	517.419399072	13.0
6.1542	517.57994931	11.0
6.1645	517.741483133	10.0
6.1747	517.900866087	7.0
6.185	518.061225474	9.0
6.1952	518.21944963	8.0
6.2054	518.377100357	6.0
6.2157	518.535716904	8.0
6.2259	518.692221427	8.0
6.2362	518.849684749	6.0
6.2464	519.005051403	6.0
6.2566	519.159854982	8.0
6.2669	519.31560694	7.0
6.2771	519.469285016	3.0
6.2874	519.623904576	6.0
6.2976	519.776465332	11.0
6.3078	519.928473184	5.0
6.3181	520.081412286	4.0
6.3283	520.232314961	5.0
6.3386	520.384142116	9.0
6.3488	520.533947649	2.0
6.359	520.683210263	2.0
6.3693	520.83338731	6.0
6.3795	520.981564706	5.0
6.3898	521.130649887	3.0
6.4	521.277749956	4.0
6.4102	521.424316911	1.0
6.4205	521.571781784	8.0
6.4307	521.717283121	3.0
6.441	521.863675847	5.0
6.4512	522.008119312	0.0
6.4614	522.152039292	3.0
6.4717	522.296840972	1.0
6.4819	522.439714578	0.0
6.4922	522.583463475	3.0
6.5024	522.725298314	5.0
6.5126	522.866619122	5.0
6.5229	523.008805707	2.0
6.5331	523.149099038	3.0
6.5434	523.290251853	4.0
6.5536	523.429525178	2.0
6.5638	523.568293754	4.0
6.5741	523.707912472	3.0
6.5843	523.845672128	5.0
6.5946	523.984275745	6.0
6.6048	524.121033816	3.0
6.615	524.257296254	6.0
6.6253	524.394393481	2.0
6.6355	524.529665219	2.0
6.6458	524.665765677	4.0
6.656	524.800053919	3.0
6.6662	524.933855479	1.0
6.6765	525.068476752	3.0
6.6867	525.201305504	2.0
6.697	525.334948009	0.0
6.7072	525.466811027	3.0
6.7174	525.598196152	4.0
6.7277	525.730386186	1.0
6.7379	525.860816072	3.0
6.7482	525.992045015	4.0
6.7584	526.121526608	0.0
6.7686	526.250538938	1.0
6.7789	526.380341641	0.0
6.7891	526.508415985	1.0
6.7994	526.637274954	3.0
6.8096	526.76441813	4.0
6.8198	526.891100518	2.0
6.8301	527.018559005	1.0
6.8403	527.144320346	3.0
6.8506	527.270852143	2.0
6.8608	527.395699133	1.0
6.871	527.520093658	2.0
6.8813	527.645250265	0.0
6.8915	527.768740376	0.0
6.9018	527.892987029	2.0
6.912	528.015579302	3.0
6.9222	528.137727282	2.0
6.9325	528.26062358	1.0
6.9427	528.38188348	1.0
6.953	528.503886258	2.0
6.9632	528.624264534	0.0
6.9734	528.744206541	1.0
6.9837	528.864883352	2.0
6.9939	528.983953317	0.0
7.0042	529.103752744	2.0
7.0144	529.221957008	4.0
7.0246	529.339732881	0.0
7.0349	529.458230288	2.0
7.0451	529.575149869	3.0
7.0554	529.692785738	0.0
7.0656	529.808855251	1.0
7.0758	529.924504111	0.0
7.0861	530.040861473	1.0
7.0963	530.155669505	1.0
7.1066	530.271180889	0.0
7.1168	530.385154206	1.0
7.127	530.498714465	1.0
7.1373	530.612970432	2.0
7.1475	530.725705049	0.0
7.1578	530.839130316	0.0
7.168	530.951045293	0.0
7.1782	531.062554672	0.0
7.1885	531.174747195	1.0
7.1987	531.285445842	2.0
7.209	531.396822667	0.0
7.2192	531.506716477	0.0
7.2294	531.616212015	1.0
7.2397	531.726378358	0.0
7.2499	531.835077806	1.0
7.2602	531.944443183	1.0
7.2704	532.052352328	2.0
7.2806	532.159870394	0.0
7.2909	532.268047151	0.0
7.3011	532.374783504	1.0
7.3114	532.482173759	0.0
7.3216	532.588134083	0.0
7.3318	532.69371039	1.0
7.3421	532.799933492	1.0
7.3523	532.904742203	1.0
7.3626	533.010193008	2.0
7.3728	533.114239705	1.0
7.383	533.21790932	2.0
7.3933	533.32221405	0.0
7.4035	533.425129933	1.0
7.4138	533.528676312	2.0
7.424	533.630843943	0.0
7.4342	533.732641301	1.0
7.4445	533.835062304	2.0
7.4547	533.936119543	1.0
7.465	534.037795891	0.0
7.4752	534.138118391	1.0
7.4854	534.238077305	2.0
7.4957	534.338648601	0.0
7.5059	534.437880762	0.0
7.5162	534.537720852	0.0
7.5264	534.636231543	3.0
7.5366	534.734385215	1.0
7.5469	534.83314021	0.0
7.5571	534.930580253	1.0
7.5674	535.028617247	1.0
7.5776	535.125348851	1.0
7.5878	535.221729883	1.0
7.5981	535.318701378	1.0
7.6083	535.414381671	2.0
7.6186	535.510648132	2.0
7.6288	535.605632778	1.0
7.639	535.700273185	1.0
7.6493	535.79549339	3.0
7.6595	535.889445711	1.0
7.6698	535.983973616	2.0
7.68	536.077242854	2.0
7.6902	536.17017407	0.0
7.7005	536.263674614	1.0
7.7107	536.355930171	0.0
7.721	536.448750917	0.0
7.7312	536.540335728	3.0
7.7414	536.631588621	1.0
7.7517	536.72340056	1.0
7.7619	536.813989996	4.0
7.7722	536.905134414	1.0
7.7824	536.995065218	1.0
7.7926	537.084670098	1.0
7.8029	537.174823928	0.0
7.8131	537.263777334	1.0
7.8234	537.353275698	1.0
7.8336	537.441582366	3.0
7.8438	537.529568996	1.0
7.8541	537.618094662	0.0
7.8643	537.705441584	0.0
7.8746	537.793323622	1.0
7.8848	537.880035485	3.0
7.895	537.966433091	1.0
7.9053	538.053359998	0.0
7.9155	538.139129448	0.0
7.9258	538.22542435	1.0
7.936	538.310570211	4.0
7.9462	538.39540749	3.0
7.9565	538.48076451	3.0
7.9667	538.564984978	2.0
7.977	538.649721408	0.0
7.9872	538.733329548	4.0
7.9974	538.81663468	0.0
8.0077	538.900450166	2.0
8.0179	538.983149625	0.0
