TL-DOS Lehrstuhlversuch
detector=R1407606
job_number=2015-11-05-007
irradiation_dose [mSv]=0.06

[BEGIN DATA]
time [sec] 	 temperature [K] 	 photoncount 
0.0	191.798017045	0.0
0.0102	192.976575344	0.0
0.0205	194.16298868	0.0
0.0307	195.334231271	1.0
0.041	196.51328014	1.0
0.0512	197.677252434	1.0
0.0614	198.837624144	2.0
0.0717	200.005729678	1.0
0.0819	201.158898569	1.0
0.0922	202.319753279	0.0
0.1024	203.465764064	2.0
0.1126	204.608229825	2.0
0.1229	205.758310068	1.0
0.1331	206.89368416	0.0
0.1434	208.036625469	2.0
0.1536	209.164951912	0.0
0.1638	210.289788035	1.0
0.1741	211.42212114	1.0
0.1843	212.539975028	0.0
0.1946	213.66527936	0.0
0.2048	214.776194353	0.0
0.215	215.883672885	0.0
0.2253	216.998532712	1.0
0.2355	218.099136753	0.0
0.2458	219.20707627	0.0
0.256	220.300848491	2.0
0.2662	221.391237282	0.0
0.2765	222.488893464	1.0
0.2867	223.572513845	0.0
0.297	224.663356506	0.0
0.3072	225.74025049	0.0
0.3174	226.813813254	0.0
0.3277	227.894531265	0.0
0.3379	228.961430064	0.0
0.3482	230.035439695	0.0
0.3584	231.095715894	1.0
0.3686	232.152712278	0.0
0.3789	233.216753494	0.0
0.3891	234.267188746	1.0
0.3994	235.324625101	0.0
0.4096	236.368539947	1.0
0.4198	237.40922559	1.0
0.4301	238.456847355	0.0
0.4403	239.491073111	0.0
0.4506	240.532191936	1.0
0.4608	241.559997905	0.0
0.471	242.584624502	1.0
0.4813	243.616080187	0.0
0.4915	244.634346581	0.0
0.5018	245.659399675	0.0
0.512	246.671345347	0.0
0.5222	247.680160707	0.0
0.5325	248.695699776	0.0
0.5427	249.69825308	0.0
0.553	250.707488356	0.0
0.5632	251.703818475	0.0
0.5734	252.697066586	0.0
0.5837	253.69693465	0.0
0.5939	254.684017336	0.0
0.6042	255.677678883	1.0
0.6144	256.658634415	0.0
0.6246	257.636555499	0.0
0.6349	258.620994382	0.0
0.6451	259.59284518	1.0
0.6554	260.57117332	0.0
0.6656	261.536991513	0.0
0.6758	262.499822084	0.0
0.6861	263.469069877	0.0
0.6963	264.425923834	1.0
0.7066	265.389155179	0.0
0.7168	266.340069623	0.0
0.727	267.288042545	0.0
0.7373	268.242333664	0.0
0.7475	269.1844222	0.0
0.7578	270.132789713	0.0
0.768	271.069030389	0.0
0.7782	272.002374935	0.0
0.7885	272.94194018	1.0
0.7987	273.869491143	0.0
0.809	274.803224191	0.0
0.8192	275.725017533	0.0
0.8294	276.643959437	0.0
0.8397	277.569026047	0.0
0.8499	278.482263769	0.0
0.8602	279.401588179	0.0
0.8704	280.309157127	0.0
0.8806	281.213918639	1.0
0.8909	282.124710344	1.0
0.9011	283.023855697	0.0
0.9114	283.928993812	1.0
0.9216	284.822557867	0.0
0.9318	285.713357806	0.0
0.9421	286.610094887	0.0
0.9523	287.495365332	1.0
0.9626	288.386536064	2.0
0.9728	289.266311338	0.0
0.983	290.14336515	0.0
0.9933	291.026264486	0.0
1.0035	291.89787413	0.0
1.0138	292.775293013	0.0
1.024	293.641492283	0.0
1.0342	294.505012087	0.0
1.0445	295.374287211	0.0
1.0547	296.232446857	0.0
1.065	297.096326098	0.0
1.0752	297.949158859	0.0
1.0854	298.799353501	1.0
1.0957	299.655214652	0.0
1.1059	300.50013185	0.0
1.1162	301.350680383	0.0
1.1264	302.190352896	0.0
1.1366	303.027427999	0.0
1.1469	303.870082171	1.0
1.1571	304.701961268	0.0
1.1674	305.539384801	0.0
1.1776	306.366100145	0.0
1.1878	307.190258161	0.0
1.1981	308.019909152	0.0
1.2083	308.838951342	0.0
1.2186	309.663452411	0.0
1.2288	310.47741053	0.0
1.239	311.288850784	0.0
1.2493	312.105699251	1.0
1.2595	312.912102623	0.0
1.2698	313.723880636	0.0
1.28	314.525278391	2.0
1.2902	315.324197134	0.0
1.3005	316.128440634	0.0
1.3107	316.92240022	0.0
1.321	317.721651511	0.0
1.3312	318.510682722	0.0
1.3414	319.297273177	0.0
1.3517	320.089106221	0.0
1.3619	320.870814044	0.0
1.3722	321.657731914	1.0
1.3824	322.434587413	1.0
1.3926	323.209039819	0.0
1.4029	323.988653915	0.0
1.4131	324.758299035	0.0
1.4234	325.533073804	0.0
1.4336	326.297941477	0.0
1.4438	327.06044314	2.0
1.4541	327.828026841	1.0
1.4643	328.585795399	1.0
1.4746	329.348614451	0.0
1.4848	330.101679285	1.0
1.495	330.852414618	1.0
1.5053	331.608153569	0.0
1.5155	332.354228835	2.0
1.5258	333.10527666	0.0
1.536	333.846720787	0.0
1.5462	334.58587136	0.0
1.5565	335.329948338	2.0
1.5667	336.064510756	0.0
1.577	336.803968998	1.0
1.5872	337.533971739	0.0
1.5974	338.261716319	0.0
1.6077	338.994311284	3.0
1.6179	339.717538509	0.0
1.6282	340.44558601	2.0
1.6384	341.16432392	0.0
1.6486	341.880838515	2.0
1.6589	342.602128648	2.0
1.6691	343.314195596	2.0
1.6794	344.031008438	1.0
1.6896	344.738655347	1.0
1.6998	345.44411325	0.0
1.7101	346.154272998	1.0
1.7203	346.855351886	1.0
1.7306	347.561103433	1.0
1.7408	348.257830489	2.0
1.751	348.952402317	0.0
1.7613	349.651603435	1.0
1.7715	350.341863823	1.0
1.7818	351.036724765	1.0
1.792	351.722700474	1.0
1.8022	352.406554213	1.0
1.8125	353.094965807	3.0
1.8227	353.774574636	1.0
1.833	354.458713027	3.0
1.8432	355.134103296	1.0
1.8534	355.80740434	2.0
1.8637	356.485192905	0.0
1.8739	357.154314542	1.0
1.8842	357.827895845	0.0
1.8944	358.49286402	3.0
1.9046	359.155775209	1.0
1.9149	359.823104671	0.0
1.9251	360.481900947	2.0
1.9354	361.14508807	1.0
1.9456	361.799794977	0.0
1.9558	362.452476639	1.0
1.9661	363.109508395	3.0
1.9763	363.758138642	2.0
1.9866	364.411091981	3.0
1.9968	365.055695962	2.0
2.007	365.698305952	3.0
2.0173	366.345198908	0.0
2.0275	366.983820001	1.0
2.0378	367.626697475	2.0
2.048	368.261354432	4.0
2.0582	368.894048167	7.0
2.0685	369.530958777	3.0
2.0787	370.15972517	1.0
2.089	370.792682261	0.0
2.0992	371.417545689	5.0
2.1094	372.04047619	2.0
2.1197	372.667558493	2.0
2.1299	373.286622255	2.0
2.1402	373.909812048	5.0
2.1504	374.525033072	6.0
2.1606	375.138350997	4.0
2.1709	375.755756657	4.0
2.1811	376.365267511	6.0
2.1914	376.978840727	4.0
2.2016	377.584568142	7.0
2.2118	378.188421824	1.0
2.2221	378.796300164	10.0
2.2323	379.396405523	5.0
2.2426	380.000510557	7.0
2.2528	380.596890861	3.0
2.263	381.191426345	7.0
2.2733	381.789924382	3.0
2.2835	382.380769385	5.0
2.2938	382.975552343	4.0
2.304	383.562729772	6.0
2.3142	384.148090851	2.0
2.3245	384.737353334	4.0
2.3347	385.319080879	7.0
2.345	385.904685612	10.0
2.3552	386.482802179	7.0
2.3654	387.059130423	9.0
2.3757	387.639299869	6.0
2.3859	388.21205065	7.0
2.3962	388.788618789	5.0
2.4064	389.357814313	11.0
2.4166	389.925249111	7.0
2.4269	390.496465836	9.0
2.4371	391.060378375	8.0
2.4474	391.628049366	11.0
2.4576	392.18846151	17.0
2.4678	392.747140098	9.0
2.4781	393.309542254	12.0
2.4883	393.864752936	13.0
2.4986	394.423664072	9.0
2.5088	394.975428374	15.0
2.519	395.525485872	11.0
2.5293	396.079209477	12.0
2.5395	396.625852583	11.0
2.5498	397.176139039	11.0
2.56	397.719388947	16.0
2.5702	398.260958388	8.0
2.5805	398.806137364	13.0
2.5907	399.3443451	13.0
2.601	399.886139967	11.0
2.6112	400.421006867	13.0
2.6214	400.954219232	13.0
2.6317	401.490985433	15.0
2.6419	402.020887969	10.0
2.6522	402.554322281	13.0
2.6624	403.080935534	15.0
2.6726	403.605919783	13.0
2.6829	404.134403028	8.0
2.6931	404.656128523	17.0
2.7034	405.181331294	10.0
2.7136	405.699818263	19.0
2.7238	406.216701366	11.0
2.7341	406.737029471	12.0
2.7443	407.250704106	11.0
2.7546	407.767802359	10.0
2.7648	408.278288443	16.0
2.775	408.787195411	5.0
2.7853	409.299494219	11.0
2.7955	409.80524223	6.0
2.8058	410.314361027	10.0
2.816	410.81696969	7.0
2.8262	411.318023603	12.0
2.8365	411.822417017	15.0
2.8467	412.32036072	11.0
2.857	412.821623195	13.0
2.8672	413.316475993	5.0
2.8774	413.809798034	8.0
2.8877	414.306408044	7.0
2.8979	414.79666787	6.0
2.9082	415.290195254	10.0
2.9184	415.777411872	5.0
2.9286	416.263121353	9.0
2.9389	416.752068066	7.0
2.9491	417.234762585	10.0
2.9594	417.720674242	6.0
2.9696	418.200372514	5.0
2.9798	418.678586906	8.0
2.9901	419.159988576	6.0
3.0003	419.635234531	11.0
3.0106	420.113647979	7.0
3.0208	420.585943923	14.0
3.031	421.056778885	8.0
3.0413	421.530751941	8.0
3.0515	421.998664273	4.0
3.0618	422.469695219	8.0
3.072	422.934703061	9.0
3.0822	423.398272467	5.0
3.0925	423.864931541	5.0
3.1027	424.325623416	7.0
3.113	424.789385781	7.0
3.1232	425.247217986	9.0
3.1334	425.703633951	9.0
3.1437	426.163091908	5.0
3.1539	426.616674746	11.0
3.1642	427.073280693	7.0
3.1744	427.52404799	9.0
3.1846	427.973420902	7.0
3.1949	428.425788863	10.0
3.2051	428.872372366	12.0
3.2154	429.321932327	14.0
3.2256	429.765743736	10.0
3.2358	430.208182276	15.0
3.2461	430.653569649	11.0
3.2563	431.093261824	7.0
3.2666	431.535884528	10.0
3.2768	431.972847387	8.0
3.287	432.408458562	17.0
3.2973	432.846973065	9.0
3.3075	433.279880255	21.0
3.3178	433.715672752	6.0
3.328	434.145892741	12.0
3.3382	434.574781905	8.0
3.3485	435.006529596	9.0
3.3587	435.432756501	11.0
3.369	435.861824189	3.0
3.3792	436.28540536	15.0
3.3894	436.707676242	8.0
3.3997	437.132761541	14.0
3.4099	437.552411246	9.0
3.4202	437.974857897	13.0
3.4304	438.391902695	13.0
3.4406	438.807657423	11.0
3.4509	439.226183138	14.0
3.4611	439.639357137	12.0
3.4714	440.055284922	6.0
3.4816	440.465894211	10.0
3.4918	440.875233338	13.0
3.5021	441.287300691	10.0
3.5123	441.694098912	15.0
3.5226	442.103608425	6.0
3.5328	442.507881513	10.0
3.543	442.910904039	16.0
3.5533	443.316612691	15.0
3.5635	443.717133521	13.0
3.5738	444.120323803	12.0
3.584	444.518358465	12.0
3.5942	444.915161863	8.0
3.6045	445.314609937	12.0
3.6147	445.708950242	11.0
3.625	446.105918808	10.0
3.6352	446.49781131	13.0
3.6454	446.888491548	17.0
3.6557	447.281775652	15.0
3.6659	447.670030806	9.0
3.6762	448.060873664	15.0
3.6864	448.446718788	10.0
3.6966	448.831370354	12.0
3.7069	449.218585605	12.0
3.7171	449.60084951	13.0
3.7274	449.985661186	10.0
3.7376	450.36555225	7.0
3.7478	450.744268175	10.0
3.7581	451.125508223	9.0
3.7683	451.501873331	6.0
3.7786	451.880746894	8.0
3.7888	452.254775776	12.0
3.799	452.627647653	13.0
3.8093	453.003004704	16.0
3.8195	453.373562039	9.0
3.8298	453.746589122	11.0
3.84	454.114846283	14.0
3.8502	454.481964293	13.0
3.8605	454.851529127	8.0
3.8707	455.216368312	7.0
3.881	455.583639133	13.0
3.8912	455.946213638	10.0
3.9014	456.30766657	10.0
3.9117	456.671528569	13.0
3.9219	457.030737841	6.0
3.9322	457.392341226	10.0
3.9424	457.749320765	13.0
3.9526	458.105196038	9.0
3.9629	458.463443203	15.0
3.9731	458.817109438	9.0
3.9834	459.173132843	13.0
3.9936	459.524603753	9.0
4.0038	459.874987437	10.0
4.0141	460.227706413	13.0
4.0243	460.575915148	3.0
4.0346	460.926444678	6.0
4.0448	461.272491964	10.0
4.055	461.617468801	6.0
4.0653	461.964744894	12.0
4.0755	462.307580344	7.0
4.0858	462.652700776	6.0
4.096	462.993408132	10.0
4.1062	463.333061556	12.0
4.1165	463.674978756	11.0
4.1267	464.012523837	10.0
4.137	464.352318642	5.0
4.1472	464.687768468	6.0
4.1574	465.022180627	11.0
4.1677	465.358821627	9.0
4.1779	465.691157977	6.0
4.1882	466.025709334	9.0
4.1984	466.355982761	11.0
4.2086	466.685234533	11.0
4.2189	467.016680753	8.0
4.2291	467.343888749	9.0
4.2394	467.673277571	5.0
4.2496	467.998454477	10.0
4.2598	468.322625493	15.0
4.2701	468.648957095	9.0
4.2803	468.971115872	4.0
4.2906	469.295421824	4.0
4.3008	469.615580854	5.0
4.311	469.934749517	12.0
4.3213	470.256045425	6.0
4.3315	470.5732329	10.0
4.3418	470.892534416	9.0
4.352	471.207753003	11.0
4.3622	471.521996505	10.0
4.3725	471.838334425	11.0
4.3827	472.150627312	12.0
4.393	472.465001617	9.0
4.4032	472.775355997	5.0
4.4134	473.084750339	8.0
4.4237	473.39620678	12.0
4.4339	473.703680608	5.0
4.4442	474.013203734	6.0
4.4544	474.318768968	7.0
4.4646	474.623388979	10.0
4.4749	474.930039268	4.0
4.4851	475.2327684	7.0
4.4954	475.537515208	7.0
4.5056	475.838365198	13.0
4.5158	476.138284551	14.0
4.5261	476.440202853	11.0
4.5363	476.738260506	6.0
4.5466	477.0383047	19.0
4.5568	477.334512208	9.0
4.567	477.629803441	10.0
4.5773	477.927062776	12.0
4.5875	478.220521036	7.0
4.5978	478.515935183	2.0
4.608	478.807571849	5.0
4.6182	479.098306378	8.0
4.6285	479.39097864	6.0
4.6387	479.679908482	7.0
4.649	479.970764028	11.0
4.6592	480.257900386	12.0
4.6694	480.544148527	5.0
4.6797	480.832304499	9.0
4.6899	481.116775802	10.0
4.7002	481.403143094	16.0
4.7104	481.685848587	8.0
4.7206	481.967679572	1.0
4.7309	482.251388946	8.0
4.7411	482.531470511	9.0
4.7514	482.813418806	10.0
4.7616	483.09176181	8.0
4.7718	483.369243799	11.0
4.7821	483.648575193	10.0
4.7923	483.924334757	10.0
4.8026	484.201932247	6.0
4.8128	484.47598008	10.0
4.823	484.749180184	6.0
4.8333	485.024201154	5.0
4.8435	485.295705413	5.0
4.8538	485.569019236	8.0
4.864	485.838838177	10.0
4.8742	486.10782247	6.0
4.8845	486.378599532	3.0
4.8947	486.64591415	5.0
4.905	486.915010408	4.0
4.9152	487.180665714	9.0
4.9254	487.445499252	5.0
4.9357	487.712097894	4.0
4.9459	487.975287522	4.0
4.9562	488.240231297	8.0
4.9664	488.501787218	6.0
4.9766	488.762534053	7.0
4.9869	489.025018753	5.0
4.9971	489.284147045	8.0
5.0074	489.545002415	11.0
5.0176	489.80252221	11.0
5.0278	490.059245403	7.0
5.0381	490.317679645	7.0
5.0483	490.572809272	7.0
5.0586	490.829639325	6.0
5.0688	491.083185276	5.0
5.079	491.335946919	8.0
5.0893	491.590393206	10.0
5.0995	491.841585871	7.0
5.1098	492.094452725	9.0
5.12	492.344086153	7.0
5.1302	492.592947375	1.0
5.1405	492.843467246	12.0
5.1507	493.090783703	5.0
5.161	493.339748513	7.0
5.1712	493.585529794	8.0
5.1814	493.830550785	6.0
5.1917	494.077204829	6.0
5.2019	494.320704892	7.0
5.2122	494.565827872	6.0
5.2224	494.807816448	7.0
5.2326	495.049056466	1.0
5.2429	495.291904339	3.0
5.2531	495.531646899	9.0
5.2634	495.772987333	8.0
5.2736	496.011241731	13.0
5.2838	496.248759122	9.0
5.2941	496.487859556	9.0
5.3043	496.723902597	3.0
5.3146	496.961518854	6.0
5.3248	497.196096697	4.0
5.335	497.429948906	6.0
5.3453	497.665359729	9.0
5.3555	497.897760338	5.0
5.3658	498.131709887	6.0
5.376	498.362667908	6.0
5.3862	498.592911492	9.0
5.3965	498.82468964	4.0
5.4067	499.053504025	8.0
5.417	499.283843448	11.0
5.4272	499.511237505	2.0
5.4374	499.737928151	12.0
5.4477	499.966129679	3.0
5.4579	500.19141318	6.0
5.4682	500.418198185	14.0
5.4784	500.642083275	3.0
5.4886	500.865275808	8.0
5.4989	501.089955909	9.0
5.5091	501.311763011	5.0
5.5194	501.535048447	6.0
5.5296	501.755478718	3.0
5.5398	501.975227118	6.0
5.5501	502.196440132	2.0
5.5603	502.41482448	4.0
5.5706	502.63466435	3.0
5.5808	502.851693113	2.0
5.591	503.068050529	7.0
5.6013	503.285849956	3.0
5.6115	503.500864368	8.0
5.6218	503.717311841	6.0
5.632	503.930991586	3.0
5.6422	504.144010343	11.0
5.6525	504.35844886	5.0
5.6627	504.570145338	5.0
5.673	504.783252763	11.0
5.6832	504.99363517	8.0
5.6934	505.203366788	7.0
5.7037	505.414496258	7.0
5.7139	505.622926001	6.0
5.7242	505.832744919	10.0
5.7344	506.039880869	5.0
5.7446	506.246376073	8.0
5.7549	506.454247558	5.0
5.7651	506.659460977	3.0
5.7754	506.866042134	7.0
5.7856	507.069981724	6.0
5.7958	507.273290455	2.0
5.8061	507.47795423	4.0
5.8163	507.680000956	2.0
5.8266	507.883394314	8.0
5.8368	508.084186868	3.0
5.847	508.284358298	2.0
5.8573	508.485863862	4.0
5.8675	508.684792761	7.0
5.8778	508.885047512	6.0
5.888	509.082741592	3.0
5.8982	509.279824133	2.0
5.9085	509.478220221	3.0
5.9187	509.674079404	4.0
5.929	509.871243981	4.0
5.9392	510.065887401	2.0
5.9494	510.259928719	7.0
5.9597	510.455263313	5.0
5.9699	510.648100151	4.0
5.9802	510.842222238	2.0
5.9904	511.033862073	3.0
6.0006	511.224909097	4.0
6.0109	511.417229441	1.0
6.0211	511.607090572	1.0
6.0314	511.798217118	4.0
6.0416	511.986899717	5.0
6.0518	512.174998653	1.0
6.0621	512.36435126	3.0
6.0723	512.551282602	4.0
6.0826	512.739459834	3.0
6.0928	512.925230831	2.0
6.103	513.110427171	2.0
6.1133	513.296857836	4.0
6.1235	513.480904601	5.0
6.1338	513.666178028	1.0
6.144	513.849082353	1.0
6.1542	514.031420888	2.0
6.1645	514.214974701	1.0
6.1747	514.3961814	5.0
6.185	514.578595833	3.0
6.1952	514.758677721	2.0
6.2054	514.93820255	2.0
6.2157	515.118923905	5.0
6.2259	515.297334364	1.0
6.2362	515.47693392	1.0
6.2464	515.654236925	1.0
6.2566	515.830991468	1.0
6.2669	516.008924072	1.0
6.2771	516.18458144	2.0
6.2874	516.361409557	2.0
6.2976	516.53597656	2.0
6.3078	516.710003566	0.0
6.3181	516.885190453	1.0
6.3283	517.058137214	0.0
6.3386	517.232236657	1.0
6.3488	517.40410988	0.0
6.359	517.575451436	0.0
6.3693	517.747934977	3.0
6.3795	517.918212959	1.0
6.3898	518.089625836	3.0
6.4	518.258846845	2.0
6.4102	518.427544393	0.0
6.4205	518.597366302	3.0
6.4307	518.765016688	0.0
6.441	518.933784455	2.0
6.4512	519.100394178	0.0
6.4614	519.266488518	0.0
6.4717	519.433689868	1.0
6.4819	519.598753204	3.0
6.4922	519.76491668	2.0
6.5024	519.928955412	1.0
6.5126	520.092486713	0.0
6.5229	520.257107943	0.0
6.5331	520.419624151	4.0
6.5434	520.583223522	1.0
6.5536	520.744730937	0.0
6.5638	520.905738751	2.0
6.5741	521.067819675	1.0
6.5843	521.22782806	0.0
6.5946	521.388902893	2.0
6.6048	521.547918052	1.0
6.615	521.70644132	0.0
6.6253	521.866021138	0.0
6.6355	522.023560398	0.0
6.6458	522.182149651	2.0
6.656	522.338711012	1.0
6.6662	522.494788073	0.0
6.6765	522.65190538	3.0
6.6867	522.807013618	0.0
6.697	522.963155646	0.0
6.7072	523.117301074	0.0
6.7174	523.270969676	2.0
6.7277	523.425662472	1.0
6.7379	523.578377201	1.0
6.7482	523.732109767	1.0
6.7584	523.883876544	1.0
6.7686	524.035173852	1.0
6.7789	524.18747955	0.0
6.7891	524.337837705	1.0
6.7994	524.48919799	1.0
6.8096	524.638622821	1.0
6.8198	524.787585427	2.0
6.8301	524.937540863	0.0
6.8403	525.085578808	0.0
6.8506	525.23460342	0.0
6.8608	525.381722444	0.0
6.871	525.528386376	0.0
6.8813	525.676027816	0.0
6.8915	525.821781356	0.0
6.9018	525.968506336	0.0
6.912	526.113355135	1.0
6.9222	526.257755864	1.0
6.9325	526.403119017	2.0
6.9427	526.546623402	0.0
6.953	526.691084238	0.0
6.9632	526.833697843	1.0
6.9734	526.975870293	1.0
6.9837	527.118990316	1.0
6.9939	527.260280253	0.0
7.0042	527.402511882	0.0
7.0144	527.542924786	1.0
7.0246	527.682903342	0.0
7.0349	527.823814848	1.0
7.0451	527.96292451	0.0
7.0554	528.102961332	0.0
7.0656	528.241207493	0.0
7.0758	528.37902601	1.0
7.0861	528.51776308	1.0
7.0963	528.654726111	0.0
7.1066	528.792601994	0.0
7.1168	528.928714849	1.0
7.127	529.064406658	0.0
7.1373	529.201002847	0.0
7.1475	529.335852371	1.0
7.1578	529.471600661	3.0
7.168	529.605613129	1.0
7.1782	529.739211048	0.0
7.1885	529.873699391	0.0
7.1987	530.006468023	2.0
7.209	530.140121552	0.0
7.2192	530.272066044	0.0
7.2294	530.403602385	1.0
7.2397	530.536015409	0.0
7.2499	530.666735259	0.0
7.2602	530.798326352	0.0
7.2704	530.92823478	0.0
7.2806	531.057741354	0.0
7.2909	531.188111085	1.0
7.3011	531.316813768	0.0
7.3114	531.44637425	0.0
7.3216	531.574278033	1.0
7.3318	531.701786163	0.0
7.3421	531.83014413	1.0
7.3523	531.956860775	1.0
7.3626	532.08442198	3.0
7.3728	532.210352052	1.0
7.383	532.335892577	2.0
7.3933	532.462269824	0.0
7.4035	532.587031076	1.0
7.4138	532.712623857	0.0
7.424	532.836610675	0.0
7.4342	532.960213956	0.0
7.4445	533.084641048	2.0
7.4547	533.207477083	1.0
7.465	533.331131814	0.0
7.4752	533.453205364	0.0
7.4854	533.574901297	1.0
7.4957	533.697408327	0.0
7.5059	533.818348852	1.0
7.5162	533.940095441	0.0
7.5264	534.060285247	0.0
7.5366	534.180103263	0.0
7.5469	534.300719861	1.0
7.5571	534.419794127	0.0
7.5674	534.539662017	0.0
7.5776	534.657997148	0.0
7.5878	534.775966227	0.0
7.5981	534.894721564	0.0
7.6083	535.011958368	0.0
7.6186	535.129976551	0.0
7.6288	535.246485627	1.0
7.639	535.362634299	0.0
7.6493	535.479557097	1.0
7.6595	535.594984795	3.0
7.6698	535.711181813	0.0
7.68	535.825893012	0.0
7.6902	535.940249369	0.0
7.7005	536.055367905	0.0
7.7107	536.169014413	0.0
7.721	536.28341837	0.0
7.7312	536.396359436	0.0
7.7414	536.508951135	0.0
7.7517	536.622293252	0.0
7.7619	536.734186056	0.0
7.7722	536.846824621	0.0
7.7824	536.958022869	0.0
7.7926	537.06887714	1.0
7.8029	537.180470251	1.0
7.8131	537.290636413	1.0
7.8234	537.401536827	1.0
7.8336	537.51101915	1.0
7.8438	537.620162806	0.0
7.8541	537.730033899	1.0
7.8643	537.838500063	3.0
7.8746	537.947689148	1.0
7.8848	538.055482026	1.0
7.895	538.162941462	1.0
7.9053	538.27111711	0.0
7.9155	538.377909509	2.0
7.9258	538.485413675	0.0
7.936	538.591543177	0.0
7.9462	538.697344383	0.0
7.9565	538.803850749	0.0
7.9667	538.908995212	1.0
7.977	539.014840457	1.0
7.9872	539.119332252	2.0
7.9974	539.223500817	0.0
8.0077	539.32836366	0.0
8.0179	539.431885615	0.0
8.0282	539.536097539	0.0
8.0384	539.638976899	2.0
8.0486	539.741538016	0.0
8.0589	539.844782697	2.0
8.0691	539.946707183	0.0
8.0794	540.04931099	1.0
8.0896	540.150602796	1.0
8.0998	540.25158127	0.0
8.1101	540.353232761	1.0
8.1203	540.453584427	0.0
8.1306	540.554604933	0.0
