TL-DOS Lehrstuhlversuch
detector=R1408202
job_number=2015-10-21-014
irradiation_dose [mSv]=5.0

[BEGIN DATA]
time [sec] 	 temperature [K] 	 photoncount 
0.0	163.634948701	0.0
0.0102	165.014725507	0.0
0.0205	166.403126877	0.0
0.0307	167.773210618	0.0
0.041	169.151858335	3.0
0.0512	170.512317106	1.0
0.0614	171.868012088	5.0
0.0717	173.232181106	2.0
0.0819	174.578352201	0.0
0.0922	175.932937801	2.0
0.1024	177.269651914	0.0
0.1126	178.601685383	0.0
0.1229	179.942044987	3.0
0.1331	181.264720793	2.0
0.1434	182.595664242	2.0
0.1536	183.909048122	0.0
0.1638	185.217833052	1.0
0.1741	186.534798798	0.0
0.1843	187.834389388	1.0
0.1946	189.142103322	1.0
0.2048	190.432564163	2.0
0.215	191.71850632	1.0
0.2253	193.012486511	1.0
0.2355	194.2893948	0.0
0.2458	195.574284655	1.0
0.256	196.842222541	1.0
0.2662	198.105720611	1.0
0.2765	199.377116422	0.0
0.2867	200.631738295	0.0
0.297	201.894202428	0.0
0.3072	203.140010463	0.0
0.3174	204.38145617	0.0
0.3277	205.630661776	0.0
0.3379	206.863386208	0.0
0.3482	208.103816025	0.0
0.3584	209.327880449	0.0
0.3686	210.547658683	1.0
0.3789	211.77506138	0.0
0.3891	212.986270555	0.0
0.3994	214.20505063	0.0
0.4096	215.407750944	0.0
0.4198	216.606239877	0.0
0.4301	217.8122202	0.0
0.4403	219.002289633	0.0
0.4506	220.199797827	1.0
0.4608	221.381506908	0.0
0.471	222.559078111	0.0
0.4813	223.744009953	0.0
0.4915	224.913308605	1.0
0.5018	226.089916187	0.0
0.512	227.251000403	0.0
0.5222	228.408018962	0.0
0.5325	229.572269692	0.0
0.5427	230.721160084	0.0
0.553	231.877231839	0.0
0.5632	233.018051166	0.0
0.5734	234.154875794	0.0
0.5837	235.298806367	0.0
0.5939	236.427644693	0.0
0.6042	237.563539044	0.0
0.6144	238.684447172	0.0
0.6246	239.801430323	0.0
0.6349	240.925395395	0.0
0.6451	242.034531632	0.0
0.6554	243.150600742	0.0
0.6656	244.25194519	2.0
0.6758	245.349433166	0.0
0.6861	246.453781205	0.0
0.6963	247.543559222	0.0
0.7066	248.640149109	0.0
0.7168	249.72227133	0.0
0.727	250.800604388	0.0
0.7373	251.885677777	0.0
0.7475	252.956435441	1.0
0.7578	254.033886085	0.0
0.768	255.097121573	0.0
0.7782	256.156634031	0.0
0.7885	257.222769179	1.0
0.7987	258.27483846	0.0
0.809	259.333483906	0.0
0.8192	260.378162299	1.0
0.8294	261.419182642	0.0
0.8397	262.466710086	0.0
0.8499	263.50041716	1.0
0.8602	264.540585623	0.0
0.8704	265.567030806	1.0
0.8806	266.589881783	2.0
0.8909	267.619126291	0.0
0.9011	268.634791643	0.0
0.9114	269.656805609	0.0
0.9216	270.665335813	0.0
0.9318	271.670334544	1.0
0.9421	272.681615215	0.0
0.9523	273.679553733	0.0
0.9626	274.68373006	0.0
0.9728	275.674657964	1.0
0.983	276.66211603	0.0
0.9933	277.655746396	0.0
1.0035	278.636267474	0.0
1.0138	279.62291749	1.0
1.024	280.596550314	3.0
1.0342	281.56677386	1.0
1.0445	282.543061978	1.0
1.0547	283.50646961	0.0
1.065	284.47589921	0.0
1.0752	285.432538811	1.0
1.0854	286.385828639	0.0
1.0957	287.34507719	2.0
1.1059	288.291670065	0.0
1.1162	289.244179804	1.0
1.1264	290.184122772	1.0
1.1366	291.120774432	0.0
1.1469	292.063280817	3.0
1.1571	292.993352409	1.0
1.1674	293.929237595	1.0
1.1776	294.852775345	1.0
1.1878	295.77307923	1.0
1.1981	296.699135655	1.0
1.2083	297.612974318	0.0
1.2186	298.532525107	1.0
1.2288	299.439943965	1.0
1.239	300.344185401	0.0
1.2493	301.254078975	0.0
1.2595	302.151968027	3.0
1.2698	303.055469511	2.0
1.28	303.947050807	3.0
1.2902	304.835510138	1.0
1.3005	305.729522957	3.0
1.3107	306.611740775	3.0
1.321	307.499473069	1.0
1.3312	308.375493222	2.0
1.3414	309.248445899	2.0
1.3517	310.126855138	1.0
1.3619	310.993675238	3.0
1.3722	311.865913567	3.0
1.3824	312.726644173	0.0
1.3926	313.584360841	1.0
1.4029	314.447438835	5.0
1.4131	315.299129961	2.0
1.4234	316.156144748	4.0
1.4336	317.001852662	1.0
1.4438	317.844599241	2.0
1.4541	318.692613572	3.0
1.4643	319.529439775	2.0
1.4746	320.371496724	5.0
1.4848	321.202444142	4.0
1.495	322.030481912	9.0
1.5053	322.863695493	2.0
1.5155	323.685916217	4.0
1.5258	324.513276393	5.0
1.536	325.329720938	6.0
1.5462	326.143306616	14.0
1.5565	326.961977771	5.0
1.5667	327.769847932	6.0
1.577	328.582767844	2.0
1.5872	329.384962639	3.0
1.5974	330.184348466	7.0
1.6077	330.98873101	5.0
1.6179	331.782501074	10.0
1.6282	332.581232753	4.0
1.6384	333.369426506	9.0
1.6486	334.154860316	6.0
1.6589	334.945203634	9.0
1.6691	335.725119696	7.0
1.6794	336.509910776	12.0
1.6896	337.284347853	14.0
1.6998	338.056073157	15.0
1.7101	338.832622282	12.0
1.7203	339.598926142	15.0
1.7306	340.370019934	15.0
1.7408	341.130940435	18.0
1.751	341.889196494	21.0
1.7613	342.652192181	24.0
1.7715	343.405121418	18.0
1.7818	344.162756986	20.0
1.792	344.910396823	29.0
1.8022	345.655418721	29.0
1.8125	346.405097524	29.0
1.8227	347.144885571	25.0
1.833	347.889297808	33.0
1.8432	348.623888773	40.0
1.8534	349.355907491	25.0
1.8637	350.092501835	25.0
1.8739	350.819378051	46.0
1.8842	351.550797749	37.0
1.8944	352.27256759	42.0
1.9046	352.991810078	48.0
1.9149	353.715548332	35.0
1.9251	354.429738072	39.0
1.9354	355.148391995	49.0
1.9456	355.857564484	56.0
1.9558	356.564253731	47.0
1.9661	357.275360278	51.0
1.9763	357.977084965	59.0
1.9866	358.68319592	58.0
1.9968	359.379990923	67.0
2.007	360.074346027	77.0
2.0173	360.773041332	78.0
2.0275	361.462518524	81.0
2.0378	362.156305428	72.0
2.048	362.840938976	76.0
2.0582	363.523175209	96.0
2.0685	364.209675892	83.0
2.0787	364.887119349	103.0
2.089	365.568797299	93.0
2.0992	366.241481651	113.0
2.1094	366.911810528	103.0
2.1197	367.586329427	103.0
2.1299	368.251949179	124.0
2.1402	368.921729518	125.0
2.1504	369.582673227	125.0
2.1606	370.241302573	150.0
2.1709	370.90404881	160.0
2.1811	371.558051222	151.0
2.1914	372.216141603	147.0
2.2016	372.865549585	203.0
2.2118	373.512683597	195.0
2.2221	374.163862646	170.0
2.2323	374.806450479	202.0
2.2426	375.453054933	193.0
2.2528	376.091128524	211.0
2.263	376.726967834	223.0
2.2733	377.366781583	270.0
2.2835	377.998154061	227.0
2.2938	378.633473055	256.0
2.304	379.260410081	275.0
2.3142	379.885151821	283.0
2.3245	380.513798631	311.0
2.3347	381.1341515	310.0
2.345	381.758382006	319.0
2.3552	382.374376837	368.0
2.3654	382.988214697	364.0
2.3757	383.605889471	362.0
2.3859	384.215415061	391.0
2.3962	384.82875061	401.0
2.4064	385.433994225	451.0
2.4166	386.037118515	418.0
2.4269	386.644012752	482.0
2.4371	387.242900036	499.0
2.4474	387.845530783	493.0
2.4576	388.440210826	505.0
2.4678	389.032808536	489.0
2.4781	389.629110393	569.0
2.4883	390.217545046	578.0
2.4986	390.809657825	585.0
2.5088	391.393958668	556.0
2.519	391.976213521	611.0
2.5293	392.562107872	622.0
2.5395	393.140272328	641.0
2.5498	393.722050714	647.0
2.56	394.29615351	700.0
2.5702	394.868246024	680.0
2.5805	395.443914515	730.0
2.5907	396.011988025	706.0
2.601	396.583612389	764.0
2.6112	397.147695127	774.0
2.6214	397.709802671	758.0
2.6317	398.275423778	750.0
2.6419	398.833582462	795.0
2.6522	399.395230026	832.0
2.6624	399.949467592	853.0
2.6726	400.501764437	839.0
2.6829	401.057513522	877.0
2.6931	401.605930428	803.0
2.7034	402.157775322	859.0
2.7136	402.702339547	836.0
2.7238	403.244996923	842.0
2.7341	403.791046286	867.0
2.7443	404.329891442	828.0
2.7546	404.872104755	881.0
2.7648	405.407164472	822.0
2.775	405.940350622	828.0
2.7853	406.476869556	849.0
2.7955	407.006310021	792.0
2.8058	407.539059858	861.0
2.816	408.064780953	808.0
2.8262	408.588661181	811.0
2.8365	409.115816025	799.0
2.8467	409.636015944	741.0
2.857	410.159467474	744.0
2.8672	410.676012939	737.0
2.8774	411.190749666	695.0
2.8877	411.708703855	701.0
2.8979	412.219824506	658.0
2.9082	412.734140017	693.0
2.9184	413.241669997	636.0
2.9286	413.747422808	627.0
2.9389	414.256336925	635.0
2.9491	414.758536773	600.0
2.9594	415.26387572	562.0
2.9696	415.762547566	500.0
2.9798	416.259473261	527.0
2.9901	416.759505086	465.0
3.0003	417.25293983	510.0
3.0106	417.749458884	508.0
3.0208	418.239427201	467.0
3.031	418.727679843	478.0
3.0413	419.218984403	460.0
3.0515	419.703807024	446.0
3.0618	420.191660122	475.0
3.072	420.673076817	419.0
3.0822	421.15280778	444.0
3.0925	421.635537396	456.0
3.1027	422.111898204	438.0
3.113	422.591236597	428.0
3.1232	423.064250924	462.0
3.1334	423.535608942	471.0
3.1437	424.009913276	433.0
3.1539	424.477959958	414.0
3.1642	424.948932258	476.0
3.1744	425.413690867	456.0
3.1846	425.876822076	474.0
3.1949	426.342848177	489.0
3.2051	426.802725844	449.0
3.2154	427.265478066	485.0
3.2256	427.722125049	500.0
3.2358	428.177173034	468.0
3.2461	428.635065386	468.0
3.2563	429.086916615	480.0
3.2666	429.541592229	546.0
3.2768	429.99026916	559.0
3.287	430.437375002	518.0
3.2973	430.887275567	570.0
3.3075	431.331240447	534.0
3.3178	431.777980416	507.0
3.328	432.218826401	606.0
3.3382	432.658128717	632.0
3.3485	433.100176978	650.0
3.3587	433.536393153	594.0
3.369	433.975335982	615.0
3.3792	434.408487697	608.0
3.3894	434.840122685	659.0
3.3997	435.274455692	705.0
3.4099	435.703058403	612.0
3.4202	436.13434018	734.0
3.4304	436.559931915	704.0
3.4406	436.984033397	699.0
3.4509	437.410785808	736.0
3.4611	437.831907936	692.0
3.4714	438.255662371	758.0
3.4816	438.673826075	756.0
3.4918	439.090525536	782.0
3.5021	439.509829658	792.0
3.5123	439.923601765	799.0
3.5226	440.339960236	776.0
3.5328	440.750825554	794.0
3.543	441.160252184	781.0
3.5533	441.572238015	835.0
3.5635	441.978788384	754.0
3.5738	442.387879975	806.0
3.584	442.791574288	860.0
3.5942	443.193855024	879.0
3.6045	443.598650294	848.0
3.6147	443.998104968	846.0
3.625	444.400056512	833.0
3.6352	444.796704979	879.0
3.6454	445.191964541	867.0
3.6557	445.589694749	840.0
3.6659	445.982177573	837.0
3.6762	446.377113688	910.0
3.6864	446.766839283	868.0
3.6966	447.155200213	821.0
3.7069	447.545988669	815.0
3.7171	447.931621326	816.0
3.7274	448.319664456	837.0
3.7376	448.702588006	768.0
3.7478	449.08417071	808.0
3.7581	449.468138571	803.0
3.7683	449.84704062	815.0
3.7786	450.22831107	831.0
3.7888	450.604551295	837.0
3.799	450.979474076	771.0
3.8093	451.356740384	785.0
3.8195	451.729029297	827.0
3.8298	452.103645273	780.0
3.84	452.47331882	764.0
3.8502	452.841697916	809.0
3.8605	453.212379638	814.0
3.8707	453.578170835	819.0
3.881	453.946248482	752.0
3.8912	454.309469961	722.0
3.9014	454.671419583	689.0
3.9117	455.035631641	733.0
3.9219	455.395038531	754.0
3.9322	455.756691964	747.0
3.9424	456.113573987	693.0
3.9526	456.469206349	739.0
3.9629	456.827061662	713.0
3.9731	457.180195673	691.0
3.9834	457.535537017	675.0
3.9936	457.886190227	722.0
4.0038	458.235615589	700.0
4.0141	458.587225102	712.0
4.0243	458.934195717	661.0
4.0346	459.28333514	696.0
4.0448	459.627868253	707.0
4.055	459.971194947	650.0
4.0653	460.316667672	686.0
4.0755	460.657582464	661.0
4.0858	461.000628209	623.0
4.096	461.339148041	637.0
4.1062	461.676482511	688.0
4.1165	462.015925555	683.0
4.1267	462.350890218	662.0
4.137	462.687948642	687.0
4.1472	463.020560146	663.0
4.1574	463.352006975	619.0
4.1677	463.685525578	665.0
4.1779	464.014643961	733.0
4.1882	464.345819564	678.0
4.1984	464.672625859	641.0
4.2086	464.998287808	700.0
4.2189	465.32598537	639.0
4.2291	465.649359513	673.0
4.2394	465.974754968	685.0
4.2496	466.295857376	676.0
4.2598	466.61583541	680.0
4.2701	466.93781353	685.0
4.2803	467.255543688	633.0
4.2906	467.57525988	672.0
4.3008	467.890757953	679.0
4.311	468.205151276	682.0
4.3213	468.521509776	654.0
4.3315	468.833694456	651.0
4.3418	469.147830508	640.0
4.352	469.45782206	656.0
4.3622	469.766728145	689.0
4.3725	470.077565107	638.0
4.3827	470.384301097	699.0
4.393	470.6929544	678.0
4.4032	470.99753554	677.0
4.4134	471.301050158	691.0
4.4237	471.606461952	648.0
4.4339	471.90784435	673.0
4.4442	472.211110598	647.0
4.4544	472.510375755	630.0
4.4646	472.808593004	651.0
4.4749	473.108674319	692.0
4.4851	473.404796563	662.0
4.4954	473.702769778	640.0
4.5056	473.996811735	644.0
4.5158	474.289824073	695.0
4.5261	474.584667943	678.0
4.5363	474.875621841	671.0
4.5466	475.168394404	648.0
4.5568	475.457304324	620.0
4.567	475.745202595	688.0
4.5773	476.034900431	686.0
4.5875	476.320776189	661.0
4.5978	476.608438869	652.0
4.608	476.892306323	675.0
4.6182	477.175179785	665.0
4.6285	477.459821402	633.0
4.6387	477.740707651	641.0
4.649	478.023349634	626.0
4.6592	478.30226263	612.0
4.6694	478.580198982	613.0
4.6797	478.859872631	606.0
4.6899	479.135856454	593.0
4.7002	479.413565368	640.0
4.7104	479.687610378	673.0
4.7206	479.960695791	631.0
4.7309	480.235488177	634.0
4.7411	480.506655139	573.0
4.7514	480.779517083	650.0
4.7616	481.04877907	672.0
4.7718	481.317098209	620.0
4.7821	481.587094529	559.0
4.7923	481.853528699	619.0
4.8026	482.121628269	632.0
4.8128	482.386190714	630.0
4.823	482.649826766	590.0
4.8333	482.915110727	593.0
4.8435	483.176894711	585.0
4.8538	483.440315026	602.0
4.864	483.700259952	612.0
4.8742	483.959294653	589.0
4.8845	484.219948502	618.0
4.8947	484.47716346	607.0
4.905	484.73598619	597.0
4.9152	484.991394188	597.0
4.9254	485.245907848	548.0
4.9357	485.502012395	542.0
4.9459	485.754738073	553.0
4.9562	486.009043461	577.0
4.9664	486.259993716	555.0
4.9766	486.510065243	559.0
4.9869	486.76169989	605.0
4.9971	487.01001464	519.0
5.0074	487.25988153	549.0
5.0176	487.506451845	563.0
5.0278	487.752158768	567.0
5.0381	487.99940153	542.0
5.0483	488.243382339	574.0
5.0586	488.488888197	544.0
5.0688	488.731155016	580.0
5.079	488.972573514	561.0
5.0893	489.215501044	521.0
5.0995	489.455223553	530.0
5.1098	489.696444495	544.0
5.12	489.93448293	561.0
5.1302	490.171687849	541.0
5.1405	490.410375463	549.0
5.1507	490.645913995	561.0
5.161	490.882924806	502.0
5.1712	491.116808656	538.0
5.1814	491.349873538	606.0
5.1917	491.584395238	478.0
5.2019	491.815822816	580.0
5.2122	492.048696978	567.0
5.2224	492.278498756	553.0
5.2326	492.507495859	547.0
5.2429	492.737924352	496.0
5.2531	492.965312728	542.0
5.2634	493.19412244	518.0
5.2736	493.419913391	567.0
5.2838	493.644913711	547.0
5.2941	493.871320439	543.0
5.3043	494.094740111	555.0
5.3146	494.31955631	528.0
5.3248	494.541406437	536.0
5.335	494.762479732	542.0
5.3453	494.984934889	583.0
5.3555	495.204455123	543.0
5.3658	495.425347511	555.0
5.376	495.643325594	546.0
5.3862	495.860540405	563.0
5.3965	496.079112959	579.0
5.4067	496.294801814	549.0
5.417	496.511838874	573.0
5.4272	496.726012495	575.0
5.4374	496.939436164	554.0
5.4477	497.154193879	557.0
5.4579	497.366118226	593.0
5.4682	497.579367248	551.0
5.4784	497.789802806	579.0
5.4886	497.999501502	519.0
5.4989	498.210510961	552.0
5.5091	498.418736504	571.0
5.5194	498.628263601	544.0
5.5296	498.835026339	528.0
5.5398	499.041065076	585.0
5.5501	499.248391698	572.0
5.5603	499.452982993	553.0
5.5706	499.658853126	587.0
5.5808	499.862007147	545.0
5.591	500.064449803	519.0
5.6013	500.268157867	592.0
5.6115	500.469178344	596.0
5.6218	500.671455339	552.0
5.632	500.871063628	537.0
5.6422	501.069972968	522.0
5.6525	501.270125629	579.0
5.6627	501.467637611	512.0
5.673	501.666384181	530.0
5.6832	501.862508623	528.0
5.6934	502.057946314	529.0
5.7037	502.254605627	516.0
5.7139	502.44867035	515.0
5.7242	502.643948113	537.0
5.7344	502.836649512	495.0
5.7446	503.028676148	526.0
5.7549	503.221903083	539.0
5.7651	503.412580713	528.0
5.7754	503.604450211	497.0
5.7856	503.793788312	469.0
5.7958	503.982463426	520.0
5.8061	504.172317891	478.0
5.8163	504.359667544	504.0
5.8266	504.548188263	494.0
5.8368	504.734221767	477.0
5.847	504.919603855	470.0
5.8573	505.10614471	468.0
5.8675	505.290224471	445.0
5.8778	505.475454858	442.0
5.888	505.658241441	454.0
5.8982	505.840387978	402.0
5.9085	506.023673058	439.0
5.9187	506.204539997	438.0
5.929	506.386537481	387.0
5.9392	506.566133813	423.0
5.9494	506.74510127	422.0
5.9597	506.925187398	404.0
5.9699	507.102897591	368.0
5.9802	507.281718597	377.0
5.9904	507.458180359	413.0
6.0006	507.634024222	329.0
6.0109	507.810967231	387.0
6.0211	507.985575773	381.0
6.0314	508.161275741	319.0
6.0416	508.334657642	384.0
6.0518	508.507432428	306.0
6.0621	508.681287176	341.0
6.0723	508.852848203	356.0
6.0826	509.025481605	277.0
6.0928	509.195837399	301.0
6.103	509.365596674	297.0
6.1133	509.536417062	264.0
6.1235	509.704983762	275.0
6.1338	509.874604121	280.0
6.144	510.041986624	272.0
6.1542	510.208783019	279.0
6.1645	510.376622008	261.0
6.1747	510.542246643	263.0
6.185	510.708906546	226.0
6.1952	510.873367652	246.0
6.2054	511.03725288	224.0
6.2157	511.202162504	212.0
6.2259	511.364896423	236.0
6.2362	511.528647541	220.0
6.2464	511.690238238	195.0
6.2566	511.851263108	187.0
6.2669	512.013294496	210.0
6.2771	512.173188151	219.0
6.2874	512.334081252	178.0
6.2976	512.492851639	176.0
6.3078	512.651066074	186.0
6.3181	512.81026946	173.0
6.3283	512.967372424	189.0
6.3386	513.125457391	178.0
6.3488	513.281456691	177.0
6.359	513.436909744	154.0
6.3693	513.593334486	172.0
6.3795	513.747695466	155.0
6.3898	513.90302131	153.0
6.4	514.056297889	141.0
6.4102	514.209037754	131.0
6.4205	514.36273235	131.0
6.4307	514.514399203	110.0
6.441	514.667014079	108.0
6.4512	514.817615458	113.0
6.4614	514.96768949	116.0
6.4717	515.11870159	100.0
6.4819	515.267721338	107.0
6.4922	515.417672563	114.0
6.5024	515.565645432	83.0
6.5126	515.71310016	101.0
6.5229	515.861476581	103.0
6.5331	516.007895425	103.0
6.5434	516.155229488	90.0
6.5536	516.300619725	93.0
6.5638	516.445500863	80.0
6.5741	516.591287609	90.0
6.5843	516.735150943	87.0
6.5946	516.879913523	78.0
6.6048	517.022766204	61.0
6.615	517.165118671	69.0
6.6253	517.308360939	52.0
6.6355	517.449713366	62.0
6.6458	517.591949344	54.0
6.656	517.732308757	63.0
6.6662	517.872176686	58.0
6.6765	518.012918887	54.0
6.6867	518.151804231	51.0
6.697	518.291557705	46.0
6.7072	518.429467366	48.0
6.7174	518.566894122	46.0
6.7277	518.70517989	60.0
6.7379	518.84164121	46.0
6.7482	518.978955508	45.0
6.7584	519.114458173	33.0
6.7686	519.249486362	49.0
6.7789	519.385358571	37.0
6.7891	519.519438174	40.0
6.7994	519.654355868	35.0
6.8096	519.787493549	31.0
6.8198	519.920165034	28.0
6.8301	520.053665808	36.0
6.8403	520.185405264	43.0
6.8506	520.317968182	42.0
6.8608	520.448782155	32.0
6.871	520.579138069	28.0
6.8813	520.710308799	28.0
6.8915	520.83974895	27.0
6.9018	520.969998192	26.0
6.912	521.098529014	23.0
6.9222	521.226609772	18.0
6.9325	521.355491124	20.0
6.9427	521.482672102	27.0
6.953	521.610648049	19.0
6.9632	521.736935569	17.0
6.9734	521.862780879	24.0
6.9837	521.989412811	23.0
6.9939	522.114374046	22.0
7.0042	522.240116376	21.0
7.0144	522.364199746	14.0
7.0246	522.487848625	14.0
7.0349	522.612270396	15.0
7.0451	522.735050631	10.0
7.0554	522.858598327	15.0
7.0656	522.980516018	12.0
7.0758	523.102006802	15.0
7.0861	523.224256988	13.0
7.0963	523.344894287	14.0
7.1066	523.466285653	12.0
7.1168	523.586075464	9.0
7.127	523.705445818	12.0
7.1373	523.82556232	11.0
7.1475	523.944094086	11.0
7.1578	524.063366758	16.0
7.168	524.181065827	5.0
7.1782	524.29835276	6.0
7.1885	524.416372818	12.0
7.1987	524.532835799	7.0
7.209	524.650026755	7.0
7.2192	524.765671573	9.0
7.2294	524.880911448	15.0
7.2397	524.996871652	8.0
7.2499	525.111301956	12.0
7.2602	525.226447529	11.0
7.2704	525.34007395	10.0
7.2806	525.453302495	8.0
7.2909	525.567238797	7.0
7.3011	525.679671901	7.0
7.3114	525.79280779	5.0
7.3216	525.904451041	8.0
7.3318	526.015703361	6.0
7.3421	526.127651085	12.0
7.3523	526.238121847	11.0
7.3626	526.349283128	5.0
7.3728	526.458977822	12.0
7.383	526.568288408	6.0
7.3933	526.678282262	6.0
7.4035	526.786824931	8.0
7.4138	526.896046068	5.0
7.424	527.003826214	7.0
7.4342	527.111228957	8.0
7.4445	527.219303042	3.0
7.4547	527.32595127	5.0
7.465	527.433266124	5.0
7.4752	527.539165139	7.0
7.4854	527.644693337	5.0
7.4957	527.750881159	7.0
7.5059	527.855668011	9.0
7.5162	527.961109854	9.0
7.5264	528.065160569	14.0
7.5366	528.168846939	7.0
7.5469	528.273181421	5.0
7.5571	528.376139384	6.0
7.5674	528.479740906	4.0
7.5776	528.58197558	6.0
7.5878	528.683852268	4.0
7.5981	528.786365756	5.0
7.6083	528.887526751	2.0
7.6186	528.989320072	4.0
7.6288	529.089770402	8.0
7.639	529.189868993	3.0
7.6493	529.290593271	6.0
7.6595	529.38998866	9.0
7.6698	529.49000534	6.0
7.68	529.588702467	7.0
7.6902	529.687053996	5.0
7.7005	529.786020291	8.0
7.7107	529.883680891	4.0
7.721	529.981951937	6.0
7.7312	530.078926462	1.0
7.7414	530.175561421	8.0
7.7517	530.272800415	4.0
7.7619	530.368756503	3.0
7.7722	530.465312384	4.0
7.7824	530.560594372	4.0
