TL-DOS Lehrstuhlversuch
detector=R1407304
job_number=2015-11-05-008
irradiation_dose [mSv]=0.07

[BEGIN DATA]
time [sec] 	 temperature [K] 	 photoncount 
0.0	121.466458962	0.0
0.0102	123.318148534	0.0
0.0205	125.179615474	1.0
0.0307	127.014751895	1.0
0.041	128.85957828	1.0
0.0512	130.678309526	0.0
0.0614	132.488932918	1.0
0.0717	134.309116839	1.0
0.0819	136.10355419	1.0
0.0922	137.907466604	1.0
0.1024	139.685862609	2.0
0.1126	141.456330572	1.0
0.1229	143.236147035	1.0
0.1331	144.990787927	1.0
0.1434	146.754693748	1.0
0.1536	148.493649054	1.0
0.1638	150.224852144	2.0
0.1741	151.965196405	1.0
0.1843	153.680923432	1.0
0.1946	155.405709912	0.0
0.2048	157.106099222	3.0
0.215	158.798908242	1.0
0.2253	160.500655704	0.0
0.2355	162.178331884	3.0
0.2458	163.8648666	0.0
0.256	165.527545219	0.0
0.2662	167.182811661	0.0
0.2765	168.846818311	0.0
0.2867	170.487287524	0.0
0.297	172.136418811	0.0
0.3072	173.762223074	0.0
0.3174	175.380779545	0.0
0.3277	177.007882387	0.0
0.3379	178.611969797	0.0
0.3482	180.224527177	0.0
0.3584	181.814274872	1.0
0.3686	183.396935514	0.0
0.3789	184.987952988	0.0
0.3891	186.55646546	0.0
0.3994	188.133260056	0.0
0.4096	189.687750834	0.0
0.4198	191.235311734	0.0
0.4301	192.79104413	0.0
0.4403	194.324770633	0.0
0.4506	195.866595582	0.0
0.4608	197.38661136	0.0
0.471	198.899850948	0.0
0.4813	200.421080808	0.0
0.4915	201.920792813	0.0
0.5018	203.428423661	0.0
0.512	204.914729014	0.0
0.5222	206.394408457	0.0
0.5325	207.881900967	0.0
0.5427	209.348352838	0.0
0.553	210.82254793	0.0
0.5632	212.275890477	0.0
0.5734	213.722754062	0.0
0.5837	215.177257437	0.0
0.5939	216.611186807	0.0
0.6042	218.052687671	0.0
0.6144	219.47379845	0.0
0.6246	220.888573957	0.0
0.6349	222.31081982	0.0
0.6451	223.712947962	0.0
0.6554	225.12247968	0.0
0.6656	226.512073518	0.0
0.6758	227.895472585	0.0
0.6861	229.286176333	1.0
0.6963	230.657208524	0.0
0.7066	232.035480098	0.0
0.7168	233.394255967	0.0
0.727	234.746974451	0.0
0.7373	236.106835615	0.0
0.7475	237.447461493	0.0
0.7578	238.795166199	1.0
0.768	240.123807571	0.0
0.7782	241.446525896	1.0
0.7885	242.776228493	0.0
0.7987	244.087122397	0.0
0.809	245.404938139	0.0
0.8192	246.704113326	0.0
0.8294	247.997496826	1.0
0.8397	249.297709704	0.0
0.8499	250.579531022	0.0
0.8602	251.868120666	0.0
0.8704	253.138483161	0.0
0.8806	254.403182414	0.0
0.8909	255.674559586	0.0
0.9011	256.927953079	0.0
0.9114	258.187964794	0.0
0.9216	259.430153595	0.0
0.9318	260.666804752	0.0
0.9421	261.909985726	1.0
0.9523	263.135581859	1.0
0.9626	264.367649436	0.0
0.9728	265.58228937	0.0
0.983	266.791514472	0.0
0.9933	268.007124576	0.0
1.0035	269.205539828	0.0
1.0138	270.410283004	1.0
1.024	271.597985041	0.0
1.0342	272.780392335	0.0
1.0445	273.969043026	0.0
1.0547	275.140880207	0.0
1.065	276.318904973	1.0
1.0752	277.480266533	1.0
1.0854	278.636450776	0.0
1.0957	279.798739951	0.0
1.1059	280.944588501	2.0
1.1162	282.09648741	0.0
1.1264	283.232092664	0.0
1.1366	284.362635421	0.0
1.1469	285.499147718	0.0
1.1571	286.619584005	0.0
1.1674	287.745936467	0.0
1.1776	288.856356631	1.0
1.1878	289.961826571	0.0
1.1981	291.073133661	0.0
1.2083	292.16872127	0.0
1.2186	293.270093846	0.0
1.2288	294.355887466	0.0
1.239	295.436840647	0.0
1.2493	296.523501523	0.0
1.2595	297.594791539	0.0
1.2698	298.671738226	1.0
1.28	299.733451461	0.0
1.2902	300.790431608	1.0
1.3005	301.852992865	0.0
1.3107	302.900524154	0.0
1.321	303.953586661	0.0
1.3312	304.991753559	0.0
1.3414	306.025292337	0.0
1.3517	307.06428845	0.0
1.3619	308.088587924	0.0
1.3722	309.118295947	1.0
1.3824	310.13343871	1.0
1.3926	311.144055995	0.0
1.4029	312.160009584	1.0
1.4131	313.161592471	0.0
1.4234	314.168463958	1.0
1.4336	315.16109321	1.0
1.4438	316.149297347	0.0
1.4541	317.142719441	0.0
1.4643	318.122089543	0.0
1.4746	319.106630955	1.0
1.4848	320.077245992	0.0
1.495	321.043534054	1.0
1.5053	322.01492435	0.0
1.5155	322.972574293	2.0
1.5258	323.935280861	0.0
1.536	324.884369907	1.0
1.5462	325.82922794	1.0
1.5565	326.779075052	0.0
1.5667	327.715486541	2.0
1.577	328.656842509	0.0
1.5872	329.584882962	0.0
1.5974	330.508786235	0.0
1.6077	331.437567941	0.0
1.6179	332.353211995	0.0
1.6282	333.273690871	0.0
1.6384	334.181149538	1.0
1.6486	335.08456278	0.0
1.6589	335.992746261	1.0
1.6691	336.888083454	1.0
1.6794	337.788148243	1.0
1.6896	338.675481582	0.0
1.6998	339.558859212	2.0
1.7101	340.446901291	1.0
1.7203	341.32238198	0.0
1.7306	342.20248542	2.0
1.7408	343.070139763	0.0
1.751	343.933926127	2.0
1.7613	344.802273491	1.0
1.7715	345.658338049	2.0
1.7818	346.518922836	1.0
1.792	347.367334618	1.0
1.8022	348.211964203	0.0
1.8125	349.061053637	0.0
1.8227	349.898132669	1.0
1.833	350.73963168	0.0
1.8432	351.569227657	0.0
1.8534	352.395125317	2.0
1.8637	353.225383916	2.0
1.8739	354.043898476	3.0
1.8842	354.866734991	0.0
1.8944	355.677932453	1.0
1.9046	356.485513618	1.0
1.9149	357.297359007	0.0
1.9251	358.097720812	3.0
1.9354	358.902308722	2.0
1.9456	359.695515705	3.0
1.9558	360.485186593	4.0
1.9661	361.279027134	3.0
1.9763	362.061638771	0.0
1.9866	362.848382786	1.0
1.9968	363.623998278	4.0
2.007	364.396156097	1.0
2.0173	365.172391096	3.0
2.0275	365.937646222	1.0
2.0378	366.706942079	4.0
2.048	367.465356218	5.0
2.0582	368.220389368	4.0
2.0685	368.979409274	2.0
2.0787	369.727692816	4.0
2.089	370.479927476	0.0
2.0992	371.221521748	2.0
2.1094	371.959810013	6.0
2.1197	372.701996619	2.0
2.1299	373.433684967	6.0
2.1402	374.169236807	5.0
2.1504	374.894384238	4.0
2.1606	375.616298981	5.0
2.1709	376.342025609	3.0
2.1811	377.057486807	3.0
2.1914	377.776725812	1.0
2.2016	378.485791155	2.0
2.2118	379.191695504	5.0
2.2221	379.901327198	2.0
2.2323	380.600921126	4.0
2.2426	381.304209078	11.0
2.2528	381.997548996	2.0
2.263	382.687798023	7.0
2.2733	383.381691733	6.0
2.2835	384.065770289	11.0
2.2938	384.753460946	5.0
2.304	385.431424192	5.0
2.3142	386.106365097	7.0
2.3245	386.784869853	4.0
2.3347	387.453777134	11.0
2.345	388.126216406	11.0
2.3552	388.789144	9.0
2.3654	389.449116281	8.0
2.3757	390.112573375	8.0
2.3859	390.766645844	9.0
2.3962	391.424171973	8.0
2.4064	392.07239737	6.0
2.4166	392.717732996	13.0
2.4269	393.366476151	17.0
2.4371	394.006042809	10.0
2.4474	394.648986533	14.0
2.4576	395.282835795	18.0
2.4678	395.913859373	6.0
2.4781	396.548214909	12.0
2.4883	397.173597461	16.0
2.4986	397.802282185	14.0
2.5088	398.42207414	16.0
2.519	399.039103079	16.0
2.5293	399.65939008	16.0
2.5395	400.270903098	9.0
2.5498	400.885645053	16.0
2.56	401.49169146	8.0
2.5702	402.095036128	14.0
2.5805	402.701566602	8.0
2.5907	403.299517679	14.0
2.601	403.900626083	13.0
2.6112	404.493231786	10.0
2.6214	405.083195668	17.0
2.6317	405.676274703	9.0
2.6419	406.260964612	10.0
2.6522	406.848741826	11.0
2.6624	407.428204908	15.0
2.6726	408.00508476	10.0
2.6829	408.585010677	8.0
2.6931	409.156733521	13.0
2.7034	409.731475199	15.0
2.7136	410.298087134	16.0
2.7238	410.862173129	11.0
2.7341	411.429237634	13.0
2.7443	411.98828099	17.0
2.7546	412.550276231	9.0
2.7648	413.104322027	10.0
2.775	413.655897903	8.0
2.7853	414.210386232	14.0
2.7955	414.757031304	11.0
2.8058	415.306562793	16.0
2.816	415.848321139	4.0
2.8262	416.387664341	12.0
2.8365	416.929855405	12.0
2.8467	417.464377156	7.0
2.857	418.001721312	10.0
2.8672	418.531464714	10.0
2.8774	419.058846534	6.0
2.8877	419.589013058	7.0
2.8979	420.111680357	12.0
2.9082	420.637107465	5.0
2.9184	421.155102387	6.0
2.9286	421.670788101	5.0
2.9389	422.189196761	4.0
2.9491	422.700272511	5.0
2.9594	423.214046865	7.0
2.9696	423.720553861	7.0
2.9798	424.224802862	8.0
2.9901	424.731714421	7.0
3.0003	425.231455696	15.0
3.0106	425.733835725	10.0
3.0208	426.229109571	6.0
3.031	426.722175499	8.0
3.0413	427.217844934	9.0
3.0515	427.706503107	14.0
3.0618	428.197741513	9.0
3.072	428.682031333	8.0
3.0822	429.164162202	8.0
3.0925	429.648838839	9.0
3.1027	430.126659707	11.0
3.113	430.607003584	6.0
3.1232	431.080552979	9.0
3.1334	431.551991304	6.0
3.1437	432.025918937	6.0
3.1539	432.493142846	8.0
3.1642	432.96283381	9.0
3.1744	433.425880977	11.0
3.1846	433.886863893	17.0
3.1949	434.350280911	9.0
3.2051	434.807142877	16.0
3.2154	435.266417185	5.0
3.2256	435.71919504	21.0
3.2358	436.169954424	12.0
3.2461	436.623093927	11.0
3.2563	437.069823754	11.0
3.2666	437.518912423	10.0
3.2768	437.961648715	8.0
3.287	438.402411301	14.0
3.2973	438.845501221	12.0
3.3075	439.282323616	12.0
3.3178	439.72145254	13.0
3.328	440.154369969	20.0
3.3382	440.585357463	11.0
3.3485	441.018620675	18.0
3.3587	441.445755363	15.0
3.369	441.875145426	18.0
3.3792	442.29846175	19.0
3.3894	442.719890941	9.0
3.3997	443.14354538	7.0
3.4099	443.561207211	7.0
3.4202	443.981074398	12.0
3.4304	444.395002548	12.0
3.4406	444.807085417	12.0
3.4509	445.221344183	13.0
3.4611	445.629743243	8.0
3.4714	446.04029875	13.0
3.4816	446.445046933	8.0
3.4918	446.847990759	9.0
3.5021	447.253062227	9.0
3.5123	447.652403943	20.0
3.5226	448.053854281	14.0
3.5328	448.449626088	21.0
3.543	448.843633555	19.0
3.5533	449.239721477	5.0
3.5635	449.63020672	7.0
3.5738	450.02275382	26.0
3.584	450.409748326	10.0
3.5942	450.795017621	13.0
3.6045	451.182321232	14.0
3.6147	451.564146418	7.0
3.625	451.947987733	14.0
3.6352	452.326399599	9.0
3.6454	452.703124515	14.0
3.6557	453.081838629	9.0
3.6659	453.455195818	15.0
3.6762	453.830524423	5.0
3.6864	454.200543991	17.0
3.6966	454.568914022	13.0
3.7069	454.939229136	12.0
3.7171	455.304306128	7.0
3.7274	455.671310816	12.0
3.7376	456.033124208	7.0
3.7478	456.393324646	12.0
3.7581	456.755427029	13.0
3.7683	457.11240746	8.0
3.7786	457.471272835	8.0
3.7888	457.825062045	10.0
3.799	458.177274072	8.0
3.8093	458.531345865	6.0
3.8195	458.880409298	11.0
3.8298	459.231315871	9.0
3.84	459.577258857	9.0
3.8502	459.921659638	12.0
3.8605	460.267878939	7.0
3.8707	460.609200955	8.0
3.881	460.952325234	11.0
3.8912	461.290596007	7.0
3.9014	461.627358778	10.0
3.9117	461.965899737	11.0
3.9219	462.299652023	12.0
3.9322	462.635166601	12.0
3.9424	462.965935312	7.0
3.9526	463.295229466	8.0
3.9629	463.626262372	5.0
3.9731	463.952612806	13.0
3.9834	464.280686449	6.0
3.9936	464.604119477	9.0
4.0038	464.92611065	16.0
4.0141	465.249802015	9.0
4.0243	465.568914752	17.0
4.0346	465.889712483	7.0
4.0448	466.205972517	12.0
4.055	466.520822672	8.0
4.0653	466.837335313	10.0
4.0755	467.14937087	10.0
4.0858	467.463054051	10.0
4.096	467.772300171	8.0
4.1062	468.08016768	9.0
4.1165	468.389660804	12.0
4.1267	468.694776136	13.0
4.137	469.001502552	14.0
4.1472	469.30389031	9.0
4.1574	469.604930032	10.0
4.1677	469.907559316	12.0
4.1779	470.205907898	12.0
4.1882	470.505831833	8.0
4.1984	470.801513332	8.0
4.2086	471.095876691	11.0
4.2189	471.39179436	11.0
4.2291	471.683526262	4.0
4.2394	471.976798579	6.0
4.2496	472.265922548	19.0
4.2598	472.553757611	5.0
4.2701	472.843112512	4.0
4.2803	473.128374477	9.0
4.2906	473.415142694	6.0
4.3008	473.697854564	8.0
4.311	473.979306113	9.0
4.3213	474.262243793	10.0
4.3315	474.541179309	5.0
4.3418	474.821587673	7.0
4.352	475.098029649	9.0
4.3622	475.373239255	12.0
4.3725	475.649902034	11.0
4.3827	475.922651407	11.0
4.393	476.196840963	9.0
4.4032	476.467152098	11.0
4.4134	476.736258193	8.0
4.4237	477.006785233	12.0
4.4339	477.273485658	7.0
4.4442	477.541594325	8.0
4.4544	477.805910586	12.0
4.4646	478.069048532	8.0
4.4749	478.333575909	15.0
4.4851	478.594361537	7.0
4.4954	478.856524177	9.0
4.5056	479.114978515	11.0
4.5158	479.372280672	11.0
4.5261	479.630941446	9.0
4.5363	479.885943453	8.0
4.5466	480.142291933	10.0
4.5568	480.395014354	9.0
4.567	480.646610145	9.0
4.5773	480.899534423	7.0
4.5875	481.148881078	11.0
4.5978	481.399544343	8.0
4.608	481.646661967	9.0
4.6182	481.892677947	7.0
4.6285	482.139992951	13.0
4.6387	482.383809675	5.0
4.649	482.62891381	9.0
4.6592	482.870550938	11.0
4.6694	483.111110854	5.0
4.6797	483.352940985	11.0
4.6899	483.591350419	12.0
4.7002	483.831018713	12.0
4.7104	484.06729689	11.0
4.7206	484.302521745	8.0
4.7309	484.538988644	10.0
4.7411	484.77211071	10.0
4.7514	485.006463717	6.0
4.7616	485.237501792	9.0
4.7718	485.467509906	6.0
4.7821	485.698732518	9.0
4.7923	485.926684477	5.0
4.8026	486.155840078	6.0
4.8128	486.381754264	5.0
4.823	486.606661331	12.0
4.8333	486.832755961	5.0
4.8435	487.055652475	5.0
4.8538	487.279725936	14.0
4.864	487.500629869	8.0
4.8742	487.720549019	9.0
4.8845	487.941629395	5.0
4.8947	488.159582581	8.0
4.905	488.378686612	6.0
4.9152	488.594691408	6.0
4.9254	488.809733261	5.0
4.9357	489.025910587	9.0
4.9459	489.239030077	12.0
4.9562	489.453274889	11.0
4.9664	489.6644892	6.0
4.9766	489.874761923	3.0
4.9869	490.086144938	9.0
4.9971	490.294537931	7.0
5.0074	490.50403129	9.0
5.0176	490.710561358	4.0
5.0278	490.91617072	6.0
5.0381	491.122865749	8.0
5.0483	491.326637069	6.0
5.0586	491.531484351	6.0
5.0688	491.733434061	9.0
5.079	491.934483484	3.0
5.0893	492.136594497	7.0
5.0995	492.335846642	4.0
5.1098	492.536150886	12.0
5.12	492.73362182	10.0
5.1302	492.930212433	9.0
5.1405	493.127841092	5.0
5.1507	493.322674287	11.0
5.161	493.518536247	7.0
5.1712	493.711627733	11.0
5.1814	493.903858423	7.0
5.1917	494.097104137	5.0
5.2019	494.287616383	7.0
5.2122	494.47913458	8.0
5.2224	494.667943744	6.0
5.2326	494.855911203	9.0
5.2429	495.044871175	8.0
5.2531	495.231158301	6.0
5.2634	495.418429068	10.0
5.2736	495.603050884	6.0
5.2838	495.78684966	6.0
5.2941	495.971618938	10.0
5.3043	496.153774648	10.0
5.3146	496.336892184	13.0
5.3248	496.517419516	7.0
5.335	496.697142061	16.0
5.3453	496.877813585	7.0
5.3555	497.055929504	6.0
5.3658	497.234985918	9.0
5.376	497.411509572	11.0
5.3862	497.587246288	7.0
5.3965	497.763910937	9.0
5.4067	497.938076657	6.0
5.417	498.113162015	6.0
5.4272	498.285770784	3.0
5.4374	498.457610067	10.0
5.4477	498.630356704	9.0
5.4579	498.800659833	7.0
5.4682	498.971862203	7.0
5.4784	499.14064291	9.0
5.4886	499.308671197	12.0
5.4989	499.477586713	11.0
5.5091	499.644112914	9.0
5.5194	499.811518413	5.0
5.5296	499.976555955	12.0
5.5398	500.140857764	6.0
5.5501	500.306027126	4.0
5.5603	500.468860162	9.0
5.5706	500.632552995	3.0
5.5808	500.793930387	14.0
5.591	500.954588363	14.0
5.6013	501.116094652	1.0
5.6115	501.275316428	8.0
5.6218	501.435378934	6.0
5.632	501.59317735	7.0
5.6422	501.750272304	8.0
5.6525	501.908196758	6.0
5.6627	502.063887365	9.0
5.673	502.220400056	6.0
5.6832	502.374698869	13.0
5.6934	502.528309821	6.0
5.7037	502.682731877	13.0
5.7139	502.834969627	8.0
5.7242	502.98801123	3.0
5.7344	503.138888053	6.0
5.7446	503.289092271	5.0
5.7549	503.440089603	8.0
5.7651	503.588951073	2.0
5.7754	503.738598568	7.0
5.7856	503.886129293	8.0
5.7958	504.03300233	4.0
5.8061	504.180650892	3.0
5.8163	504.326210959	4.0
5.8266	504.472539619	3.0
5.8368	504.616798455	6.0
5.847	504.760414189	3.0
5.8573	504.904788248	4.0
5.8675	505.047120131	4.0
5.8778	505.190203561	8.0
5.888	505.33126307	3.0
5.8982	505.47169374	5.0
5.9085	505.612865917	4.0
5.9187	505.752041209	5.0
5.929	505.89195138	3.0
5.9392	506.029882517	2.0
5.9494	506.16719876	3.0
5.9597	506.305240066	3.0
5.9699	506.441328772	2.0
5.9802	506.57813606	2.0
5.9904	506.713008204	5.0
6.0006	506.847279091	2.0
6.0109	506.982258961	5.0
6.0211	507.115329536	2.0
6.0314	507.249102756	4.0
6.0416	507.380983748	3.0
6.0518	507.512276819	4.0
6.0621	507.644263148	3.0
6.0723	507.774382526	2.0
6.0826	507.905188966	4.0
6.0928	508.034145144	3.0
6.103	508.162526438	1.0
6.1133	508.291585617	3.0
6.1235	508.418819249	1.0
6.1338	508.546724706	3.0
6.144	508.672820934	2.0
6.1542	508.79835503	4.0
6.1645	508.924551975	4.0
6.1747	509.04896386	7.0
6.185	509.17403267	0.0
6.1952	509.297332377	5.0
6.2054	509.420082417	3.0
6.2157	509.543480607	2.0
6.2259	509.665133325	1.0
6.2362	509.787428399	1.0
6.2464	509.907993604	3.0
6.2566	510.028021333	0.0
6.2669	510.148682838	2.0
6.2771	510.267637581	0.0
6.2874	510.387220433	3.0
6.2976	510.505111782	3.0
6.3078	510.622477574	0.0
6.3181	510.740463086	1.0
6.3283	510.856779689	0.0
6.3386	510.973710471	1.0
6.3488	511.088987263	0.0
6.359	511.203750154	1.0
6.3693	511.319119021	4.0
6.3795	511.432855991	1.0
6.3898	511.54719352	1.0
6.4	511.65991374	4.0
6.4102	511.772131456	1.0
6.4205	511.88494171	0.0
6.4307	511.996156257	1.0
6.441	512.107958045	0.0
6.4512	512.218178392	0.0
6.4614	512.32790738	2.0
6.4717	512.438215763	0.0
6.4819	512.54696383	2.0
6.4922	512.656286113	0.0
6.5024	512.764062028	0.0
6.5126	512.871357482	0.0
6.5229	512.979219481	3.0
6.5331	513.085555768	0.0
6.5434	513.192453536	3.0
6.5536	513.297839232	1.0
6.5638	513.402755121	0.0
6.5741	513.508224991	0.0
6.5843	513.612202986	1.0
6.5946	513.71673001	0.0
6.6048	513.819778495	0.0
6.615	513.922367593	0.0
6.6253	514.025498386	0.0
6.6355	514.12717039	1.0
6.6458	514.229379247	1.0
6.656	514.330142356	0.0
6.6662	514.430456265	1.0
6.6765	514.531299856	1.0
6.6867	514.630717011	1.0
6.697	514.730659113	2.0
6.7072	514.829187529	0.0
6.7174	514.927276709	0.0
6.7277	515.025883823	0.0
6.7379	515.123096136	1.0
6.7482	515.220821754	1.0
6.7584	515.317165039	0.0
6.7686	515.413078828	0.0
6.7789	515.509499065	0.0
6.7891	515.604555434	0.0
6.7994	515.700113724	0.0
6.8096	515.794320338	4.0
6.8198	515.888106982	2.0
6.8301	515.982388842	1.0
6.8403	516.075337081	2.0
6.8506	516.16877611	1.0
6.8608	516.26089344	0.0
6.871	516.352600114	1.0
6.8813	516.44479102	0.0
6.8915	516.535677883	0.0
6.9018	516.627044651	0.0
6.912	516.717119032	0.0
6.9222	516.806791865	0.0
6.9325	516.896938191	0.0
6.9427	516.985809394	2.0
6.953	517.075149859	1.0
6.9632	517.163226599	0.0
6.9734	517.250910696	0.0
6.9837	517.339057786	1.0
6.9939	517.425958032	1.0
7.0042	517.513317132	2.0
7.0144	517.599440535	0.0
7.0246	517.685180002	0.0
7.0349	517.771372194	2.0
7.0451	517.856345194	0.0
7.0554	517.941766872	0.0
7.0656	518.025980257	0.0
7.0758	518.109818221	0.0
7.0861	518.19409887	1.0
7.0963	518.277187366	0.0
7.1066	518.36071459	1.0
7.1168	518.443060317	0.0
7.127	518.52503895	0.0
7.1373	518.60745045	1.0
7.1475	518.688696235	0.0
7.1578	518.770371019	1.0
7.168	518.850890509	2.0
7.1782	518.931051046	1.0
7.1885	519.01163485	0.0
7.1987	519.091078792	0.0
7.209	519.170942218	1.0
7.2192	519.249675973	3.0
7.2294	519.328058735	0.0
7.2397	519.406855377	0.0
7.2499	519.484537437	0.0
7.2602	519.562629678	0.0
7.2704	519.6396173	0.0
7.2806	519.716261714	1.0
7.2909	519.793310829	0.0
7.3011	519.869270082	0.0
7.3114	519.945630418	0.0
7.3216	520.020910633	1.0
7.3318	520.095855252	1.0
7.3421	520.171195596	0.0
7.3523	520.245470249	1.0
7.3626	520.320137089	2.0
7.3728	520.393747764	1.0
7.383	520.467030285	0.0
7.3933	520.540699756	2.0
7.4035	520.613327168	0.0
7.4138	520.686338071	0.0
7.424	520.758316233	1.0
7.4342	520.829973517	1.0
7.4445	520.902009169	0.0
7.4547	520.973025875	0.0
7.465	521.044417565	0.0
7.4752	521.114799418	0.0
7.4854	521.18486751	0.0
7.4957	521.255305578	2.0
7.5059	521.324747298	0.0
7.5162	521.394555686	3.0
7.5264	521.463376632	2.0
7.5366	521.531890777	0.0
7.5469	521.600766692	0.0
7.5571	521.668668355	0.0
7.5674	521.736928556	0.0
7.5776	521.804223213	1.0
7.5878	521.871217872	1.0
7.5981	521.93856628	0.0
7.6083	522.004962042	0.0
7.6186	522.071708389	0.0
7.6288	522.137510607	0.0
7.639	522.20301948	0.0
7.6493	522.268874256	0.0
7.6595	522.333797514	0.0
7.6698	522.399063582	1.0
7.68	522.463406459	3.0
7.6902	522.527462498	1.0
7.7005	522.591856767	0.0
7.7107	522.655340178	0.0
7.721	522.719158796	1.0
7.7312	522.782074697	0.0
7.7414	522.844710121	0.0
7.7517	522.907676276	2.0
7.7619	522.969751771	0.0
7.7722	523.03215504	0.0
7.7824	523.093675613	0.0
7.7926	523.154921929	0.0
7.8029	523.21649164	0.0
7.8131	523.277190445	0.0
7.8234	523.338209754	1.0
7.8336	523.398365943	3.0
7.8438	523.458253957	0.0
7.8541	523.518458195	1.0
7.8643	523.577810841	0.0
7.8746	523.637476884	0.0
7.8848	523.696298948	0.0
7.895	523.754858785	1.0
7.9053	523.813727832	0.0
7.9155	523.871764175	2.0
7.9258	523.930106963	1.0
7.936	523.98762449	1.0
7.9462	524.044885606	0.0
7.9565	524.102449074	0.0
7.9667	524.159198305	0.0
7.977	524.216247185	0.0
7.9872	524.272489107	0.0
7.9974	524.328480304	0.0
8.0077	524.384767148	0.0
8.0179	524.440257813	1.0
8.0282	524.496041481	2.0
8.0384	524.551036088	0.0
8.0486	524.60578553	0.0
8.0589	524.660824062	0.0
8.0691	524.715084072	0.0
8.0794	524.769630589	0.0
8.0896	524.823405542	0.0
8.0998	524.876940769	1.0
8.1101	524.930758674	0.0
8.1203	524.983815323	0.0
8.1306	525.037152124	0.0
