TL-DOS Lehrstuhlversuch
detector=R1406805
job_number=2015-11-19-010
irradiation_dose [mSv]=5.0

[BEGIN DATA]
time [sec] 	 temperature [K] 	 photoncount 
0.0	143.765697309	0.0
0.0102	145.376933151	0.0
0.0205	146.99751035	0.0
0.0307	148.595986707	1.0
0.041	150.203730446	1.0
0.0512	151.789548362	0.0
0.0614	153.369105328	2.0
0.0717	154.957819988	0.0
0.0819	156.524868337	1.0
0.0922	158.101001859	1.0
0.1024	159.655640647	2.0
0.1126	161.204141583	1.0
0.1229	162.761620161	1.0
0.1331	164.297858414	2.0
0.1434	165.843003216	3.0
0.1536	167.367075895	1.0
0.1638	168.885131401	1.0
0.1741	170.411988037	0.0
0.1843	171.91802196	2.0
0.1946	173.432787316	0.0
0.2048	174.926894855	1.0
0.215	176.415103524	1.0
0.2253	177.911940284	2.0
0.2355	179.388363729	0.0
0.2458	180.873346939	0.0
0.256	182.338078488	1.0
0.2662	183.797027147	1.0
0.2765	185.264434257	1.0
0.2867	186.711829404	1.0
0.297	188.167616019	1.0
0.3072	189.603549147	3.0
0.3174	191.033813084	3.0
0.3277	192.472369168	1.0
0.3379	193.891306748	0.0
0.3482	195.318470811	2.0
0.3584	196.726171729	2.0
0.3686	198.12831492	1.0
0.3789	199.538587224	2.0
0.3891	200.929626749	0.0
0.3994	202.328731013	1.0
0.4096	203.708754803	0.0
0.4198	205.083330136	1.0
0.4301	206.465874755	2.0
0.4403	207.829564734	0.0
0.4506	209.201160889	3.0
0.4608	210.554051716	0.0
0.471	211.901601209	0.0
0.4813	213.256963303	1.0
0.4915	214.593841462	2.0
0.5018	215.938470352	1.0
0.512	217.264761683	0.0
0.5222	218.585816699	1.0
0.5325	219.914530709	0.0
0.5427	221.225124201	0.0
0.553	222.543316036	4.0
0.5632	223.84353085	1.0
0.5734	225.138612302	2.0
0.5837	226.441202162	2.0
0.5939	227.726027776	1.0
0.6042	229.01830234	1.0
0.6144	230.292953335	4.0
0.6246	231.562571894	1.0
0.6349	232.839551238	3.0
0.6451	234.099115602	0.0
0.6554	235.365982461	3.0
0.6656	236.615572251	1.0
0.6758	237.86022855	2.0
0.6861	239.112100911	1.0
0.6963	240.346900693	2.0
0.7066	241.588859394	1.0
0.7168	242.813880713	0.0
0.727	244.034065541	1.0
0.7373	245.261324554	2.0
0.7475	246.471846655	2.0
0.7578	247.689386922	2.0
0.768	248.890322818	1.0
0.7782	250.086517313	1.0
0.7885	251.289646906	1.0
0.7987	252.476368656	1.0
0.809	253.669970586	1.0
0.8192	254.847294607	1.0
0.8294	256.019970448	2.0
0.8397	257.199445036	1.0
0.8499	258.362834379	2.0
0.8602	259.532968629	1.0
0.8704	260.687145013	1.0
0.8806	261.836764607	2.0
0.8909	262.993049276	1.0
0.9011	264.133564956	0.0
0.9114	265.280692928	0.0
0.9216	266.412176788	2.0
0.9318	267.539193449	0.0
0.9421	268.67274414	0.0
0.9523	269.790835881	0.0
0.9626	270.915409908	5.0
0.9728	272.024647405	3.0
0.983	273.129505534	1.0
0.9933	274.240769227	2.0
1.0035	275.33687791	1.0
1.0138	276.439341431	0.0
1.024	277.526769957	1.0
1.0342	278.609905218	2.0
1.0445	279.699320101	0.0
1.0547	280.773877942	2.0
1.065	281.854665676	1.0
1.0752	282.92071402	5.0
1.0854	283.982553512	1.0
1.0957	285.050549161	1.0
1.1059	286.103979874	1.0
1.1162	287.163517993	1.0
1.1264	288.208606518	4.0
1.1366	289.249568941	4.0
1.1469	290.296566483	3.0
1.1571	291.329285455	0.0
1.1674	292.367991754	0.0
1.1776	293.392532555	3.0
1.1878	294.413028377	1.0
1.1981	295.439440662	1.0
1.2083	296.45185511	1.0
1.2186	297.470139167	2.0
1.2288	298.474536237	1.0
1.239	299.474967859	5.0
1.2493	300.481199617	4.0
1.2595	301.473708754	4.0
1.2698	302.471972096	2.0
1.28	303.456621486	3.0
1.2902	304.437383392	2.0
1.3005	305.423831399	6.0
1.3107	306.396826586	5.0
1.321	307.375462845	1.0
1.3312	308.340752818	3.0
1.3414	309.302231741	4.0
1.3517	310.269284968	4.0
1.3619	311.223149875	5.0
1.3722	312.182544943	4.0
1.3824	313.12885613	9.0
1.3926	314.071431196	6.0
1.4029	315.019470969	9.0
1.4131	315.95458172	2.0
1.4234	316.895113902	2.0
1.4336	317.822819449	5.0
1.4438	318.746862332	12.0
1.4541	319.676262478	5.0
1.4643	320.592987803	5.0
1.4746	321.515027967	7.0
1.4848	322.424493683	7.0
1.495	323.330368748	11.0
1.5053	324.241495745	5.0
1.5155	325.140197125	5.0
1.5258	326.044108847	7.0
1.536	326.93569335	8.0
1.5462	327.823757798	10.0
1.5565	328.71697092	10.0
1.5667	329.598002726	6.0
1.577	330.484142433	6.0
1.5872	331.35819729	9.0
1.5974	332.2288013	20.0
1.6077	333.104452755	14.0
1.6179	333.968162394	12.0
1.6282	334.836879506	14.0
1.6384	335.69374937	14.0
1.6486	336.547236237	21.0
1.6589	337.405671308	19.0
1.6691	338.252399355	22.0
1.6794	339.104036421	27.0
1.6896	339.944059172	27.0
1.6998	340.780765438	24.0
1.7101	341.622322621	18.0
1.7203	342.452402954	26.0
1.7306	343.28729579	25.0
1.7408	344.110802661	35.0
1.751	344.931058254	23.0
1.7613	345.75606939	33.0
1.7715	346.569829324	35.0
1.7818	347.388307141	25.0
1.792	348.195622856	47.0
1.8022	348.999751217	38.0
1.8125	349.80854162	42.0
1.8227	350.606302034	42.0
1.833	351.408687572	31.0
1.8432	352.200130468	42.0
1.8534	352.988448678	66.0
1.8637	353.781337268	46.0
1.8739	354.563412733	51.0
1.8842	355.350022385	53.0
1.8944	356.125904542	64.0
1.9046	356.898723447	75.0
1.9149	357.676022874	70.0
1.9251	358.442721774	73.0
1.9354	359.213865715	65.0
1.9456	359.974493075	69.0
1.9558	360.732117411	84.0
1.9661	361.494134177	73.0
1.9763	362.245758835	94.0
1.9866	363.001741139	96.0
1.9968	363.747413631	116.0
2.007	364.490142142	115.0
2.0173	365.237176722	121.0
2.0275	365.974023516	120.0
2.0378	366.715142279	131.0
2.048	367.446153934	137.0
2.0582	368.17427949	138.0
2.0685	368.906626452	138.0
2.0787	369.628985934	169.0
2.089	370.355533391	159.0
2.0992	371.072172459	177.0
2.1094	371.785982173	180.0
2.1197	372.503930294	189.0
2.1299	373.212087301	231.0
2.1402	373.924349943	222.0
2.1504	374.626899007	221.0
2.1606	375.326674345	236.0
2.1709	376.030506724	260.0
2.1811	376.724740494	256.0
2.1914	377.422999178	277.0
2.2016	378.111735264	303.0
2.2118	378.797752159	318.0
2.2221	379.487746329	322.0
2.2323	380.168330611	341.0
2.2426	380.852860671	323.0
2.2528	381.52805536	359.0
2.263	382.20058432	386.0
2.2733	382.877012358	386.0
2.2835	383.544215516	433.0
2.2938	384.215286875	451.0
2.304	384.877206406	453.0
2.3142	385.536512621	474.0
2.3245	386.199641253	513.0
2.3347	386.853726377	482.0
2.345	387.511603649	504.0
2.3552	388.16050903	504.0
2.3654	388.806852474	553.0
2.3757	389.456943182	533.0
2.3859	390.09816819	587.0
2.3962	390.743110786	632.0
2.4064	391.37925789	625.0
2.4166	392.012893429	634.0
2.4269	392.650202555	714.0
2.4371	393.278820292	675.0
2.4474	393.911082524	701.0
2.4576	394.534722195	749.0
2.4678	395.15589968	727.0
2.4781	395.780678526	752.0
2.4883	396.396936866	737.0
2.4986	397.016768046	778.0
2.5088	397.628146195	791.0
2.519	398.237110568	803.0
2.5293	398.849605495	834.0
2.5395	399.453747438	844.0
2.5498	400.061391976	813.0
2.56	400.66074968	843.0
2.5702	401.257741065	852.0
2.5805	401.858193589	945.0
2.5907	402.45045736	921.0
2.601	403.04615486	932.0
2.6112	403.633728455	898.0
2.6214	404.218982257	857.0
2.6317	404.807629146	869.0
2.6419	405.388248284	877.0
2.6522	405.97223364	823.0
2.6624	406.548254816	853.0
2.6726	407.122001809	902.0
2.6829	407.699075178	771.0
2.6931	408.26827863	880.0
2.7034	408.840782116	842.0
2.7136	409.405478008	754.0
2.7238	409.967944431	780.0
2.7341	410.533671828	762.0
2.7443	411.091684042	731.0
2.7546	411.652931406	729.0
2.7648	412.206524683	722.0
2.775	412.757932325	693.0
2.7853	413.312536827	699.0
2.7955	413.859577835	631.0
2.8058	414.409790387	592.0
2.816	414.95249934	635.0
2.8262	415.49306563	582.0
2.8365	416.036765927	566.0
2.8467	416.573051436	548.0
2.857	417.112446133	528.0
2.8672	417.644484762	511.0
2.8774	418.174422855	490.0
2.8877	418.707433336	453.0
2.8979	419.233174814	484.0
2.9082	419.761964348	470.0
2.9184	420.283542444	442.0
2.9286	420.803061304	427.0
2.9389	421.325592143	417.0
2.9491	421.840996898	390.0
2.9594	422.359389781	406.0
2.9696	422.870713011	413.0
2.9798	423.380017491	399.0
2.9901	423.892274733	398.0
3.0003	424.397545997	416.0
3.0106	424.905746639	426.0
3.0208	425.407016626	440.0
3.031	425.906307555	404.0
3.0413	426.40849319	428.0
3.0515	426.9038302	463.0
3.0618	427.402038994	453.0
3.072	427.893453397	481.0
3.0822	428.382927653	488.0
3.0925	428.875239701	476.0
3.1027	429.360837778	480.0
3.113	429.849251174	494.0
3.1232	430.331003767	514.0
3.1334	430.810854358	510.0
3.1437	431.293486947	510.0
3.1539	431.769537568	549.0
3.1642	432.248348158	550.0
3.1744	432.720628902	605.0
3.1846	433.191045041	594.0
3.1949	433.664188481	593.0
3.2051	434.130879362	592.0
3.2154	434.600275947	604.0
3.2256	435.063271073	649.0
3.2358	435.524438252	634.0
3.2461	435.98827911	651.0
3.2563	436.445794276	707.0
3.2666	436.905961948	675.0
3.2768	437.35985402	634.0
3.287	437.811954087	698.0
3.2973	438.266675264	705.0
3.3075	438.715195119	718.0
3.3178	439.166315329	698.0
3.328	439.611283326	707.0
3.3382	440.05449455	752.0
3.3485	440.50027535	772.0
3.3587	440.939976755	743.0
3.369	441.382227387	755.0
3.3792	441.818446766	756.0
3.3894	442.252943913	791.0
3.3997	442.689960115	813.0
3.4099	443.12101645	813.0
3.4202	443.554571892	809.0
3.4304	443.982214662	797.0
3.4406	444.408169061	833.0
3.4509	444.836592988	828.0
3.4611	445.259174226	842.0
3.4714	445.684205435	832.0
3.4816	446.103440224	809.0
3.4918	446.521019836	853.0
3.5021	446.941020422	814.0
3.5123	447.355293194	799.0
3.5226	447.771967767	844.0
3.5328	448.182959885	859.0
3.543	448.592329369	797.0
3.5533	449.004072228	797.0
3.5635	449.410199888	828.0
3.5738	449.818682128	835.0
3.584	450.221593635	733.0
3.5942	450.622914413	851.0
3.6045	451.026561901	768.0
3.6147	451.424704593	803.0
3.625	451.82515557	755.0
3.6352	452.220145342	747.0
3.6454	452.61357566	790.0
3.6557	453.009286943	817.0
3.6659	453.39960166	753.0
3.6762	453.792179279	803.0
3.6864	454.179403068	705.0
3.6966	454.565098062	797.0
3.7069	454.953029176	752.0
3.7171	455.335669826	707.0
3.7274	455.720528887	713.0
3.7376	456.10013938	733.0
3.7478	456.478251137	694.0
3.7581	456.858555048	684.0
3.7683	457.233672513	692.0
3.7786	457.610964772	664.0
3.7888	457.983111656	689.0
3.799	458.353789272	666.0
3.8093	458.726615941	670.0
3.8195	459.094358136	700.0
3.8298	459.464232366	676.0
3.84	459.829062385	678.0
3.8502	460.192452024	664.0
3.8605	460.557948463	650.0
3.8707	460.918460394	620.0
3.881	461.281062442	677.0
3.8912	461.638719456	644.0
3.9014	461.994964407	619.0
3.9117	462.353274737	625.0
3.9219	462.706698561	662.0
3.9322	463.062171408	648.0
3.9424	463.412796445	636.0
3.9526	463.762037183	632.0
3.9629	464.113302692	694.0
3.9731	464.45977777	671.0
3.9834	464.808261583	601.0
3.9936	465.151992902	609.0
4.0038	465.494367138	696.0
4.0141	465.838726336	721.0
4.0243	466.178389288	674.0
4.0346	466.520021481	661.0
4.0448	466.85699462	620.0
4.055	467.192637358	620.0
4.0653	467.530226031	650.0
4.0755	467.863210792	632.0
4.0858	468.198126077	674.0
4.096	468.52847391	647.0
4.1062	468.8575175	644.0
4.1165	469.188468764	633.0
4.1267	469.514906636	629.0
4.137	469.843237075	673.0
4.1472	470.167089864	669.0
4.1574	470.489664053	645.0
4.1677	470.814108409	659.0
4.1779	471.134128111	625.0
4.1882	471.456003171	601.0
4.1984	471.773488615	672.0
4.2086	472.0897206	661.0
4.2189	472.407785981	669.0
4.2291	472.721513703	644.0
4.2394	473.037060304	610.0
4.2496	473.348303595	626.0
4.2598	473.658318069	673.0
4.2701	473.970129895	689.0
4.2803	474.277689344	637.0
4.2906	474.587031911	656.0
4.3008	474.892155777	646.0
4.311	475.196074986	645.0
4.3213	475.501756208	621.0
4.3315	475.803268661	654.0
4.3418	476.106529173	685.0
4.352	476.405653929	632.0
4.3622	476.703597713	606.0
4.3725	477.003268867	581.0
4.3827	477.298853215	606.0
4.393	477.596151252	609.0
4.4032	477.889394848	623.0
4.4134	478.181480692	617.0
4.4237	478.475259942	622.0
4.4339	478.765032739	631.0
4.4442	479.056485532	635.0
4.4544	479.343963598	568.0
4.4646	479.630306675	541.0
4.4749	479.918309865	597.0
4.4851	480.202385373	567.0
4.4954	480.488107846	581.0
4.5056	480.76993374	628.0
4.5158	481.050646961	605.0
4.5261	481.332987654	567.0
4.5363	481.611477888	559.0
4.5466	481.891582707	565.0
4.5568	482.167867558	523.0
4.567	482.443061612	555.0
4.5773	482.71985114	544.0
4.5875	482.992865914	548.0
4.5978	483.267463528	588.0
4.608	483.538316279	601.0
4.6182	483.80809968	579.0
4.6285	484.079447186	539.0
4.6387	484.347094154	561.0
4.649	484.616292842	555.0
4.6592	484.881820295	533.0
4.6694	485.146299423	521.0
4.6797	485.412311904	520.0
4.6899	485.674696604	560.0
4.7002	485.938602515	506.0
4.7104	486.198909372	529.0
4.7206	486.458188516	544.0
4.7309	486.718970865	507.0
4.7411	486.976196759	563.0
4.7514	487.234913955	540.0
4.7616	487.49010286	521.0
4.7718	487.744284257	534.0
4.7821	487.999939305	521.0
4.7923	488.252107822	534.0
4.8026	488.505738321	512.0
4.8128	488.755909899	521.0
4.823	489.005093777	534.0
4.8333	489.255722332	532.0
4.8435	489.502932907	495.0
4.8538	489.751576718	493.0
4.864	489.996829615	573.0
4.8742	490.241114233	532.0
4.8845	490.486815123	534.0
4.8947	490.729165234	525.0
4.905	490.972920402	548.0
4.9152	491.213351326	457.0
4.9254	491.452833008	559.0
4.9357	491.693703117	550.0
4.9459	491.931288327	488.0
4.9562	492.170250969	518.0
4.9664	492.405954726	560.0
4.9766	492.640727904	522.0
4.9869	492.876862211	532.0
4.9971	493.109776204	518.0
5.0074	493.344040547	506.0
5.0176	493.575110079	522.0
5.0278	493.805267327	520.0
5.0381	494.036758943	509.0
5.0483	494.265093561	497.0
5.0586	494.49475198	533.0
5.0688	494.7212784	544.0
5.079	494.946910475	552.0
5.0893	495.173850681	540.0
5.0995	495.39769596	492.0
5.1098	495.622839012	482.0
5.12	495.844911645	506.0
5.1302	496.066107516	530.0
5.1405	496.288585799	568.0
5.1507	496.508030005	465.0
5.161	496.728746468	491.0
5.1712	496.94645288	517.0
5.1814	497.163299768	516.0
5.1917	497.381403855	525.0
5.2019	497.596533518	501.0
5.2122	497.812910425	521.0
5.2224	498.026336462	521.0
5.2326	498.238919873	581.0
5.2429	498.452735766	524.0
5.2531	498.663635716	524.0
5.2634	498.875758386	578.0
5.2736	499.084988205	541.0
5.2838	499.293391966	553.0
5.2941	499.503003976	519.0
5.3043	499.709757373	543.0
5.3146	499.917709452	507.0
5.3248	500.122825555	516.0
5.335	500.327131842	502.0
5.3453	500.532622622	530.0
5.3555	500.735310994	555.0
5.3658	500.939174479	546.0
5.376	501.140257748	452.0
5.3862	501.340547123	595.0
5.3965	501.541997702	479.0
5.4067	501.740700971	499.0
5.417	501.94055625	493.0
5.4272	502.137685975	548.0
5.4374	502.334037414	495.0
5.4477	502.531527227	508.0
5.4579	502.726323746	500.0
5.4682	502.922249624	461.0
5.4784	503.115503537	482.0
5.4886	503.307994466	449.0
5.4989	503.501601387	442.0
5.5091	503.692567967	457.0
5.5194	503.884641702	469.0
5.5296	504.074096005	489.0
5.5398	504.262802325	475.0
5.5501	504.452602696	435.0
5.5603	504.639814639	460.0
5.5706	504.828111968	431.0
5.5808	505.013841367	459.0
5.591	505.19883749	442.0
5.6013	505.384906152	408.0
5.6115	505.568437278	419.0
5.6218	505.753032451	378.0
5.632	505.935110182	442.0
5.6422	506.116469053	391.0
5.6525	506.298879377	427.0
5.6627	506.478802056	375.0
5.673	506.659767861	420.0
5.6832	506.838265719	380.0
5.6934	507.016058853	332.0
5.7037	507.194882766	362.0
5.7139	507.371267944	343.0
5.7242	507.548675738	354.0
5.7344	507.72366411	347.0
5.7446	507.897961612	366.0
5.7549	508.073269628	357.0
5.7651	508.246186856	336.0
5.7754	508.420106595	322.0
5.7856	508.591654481	313.0
5.7958	508.76252508	302.0
5.8061	508.934386324	327.0
5.8163	509.103903788	267.0
5.8266	509.274404052	298.0
5.8368	509.442579095	252.0
5.847	509.610090168	267.0
5.8573	509.778572409	266.0
5.8675	509.944756951	265.0
5.8778	510.11190497	240.0
5.888	510.276773486	267.0
5.8982	510.440991085	240.0
5.9085	510.606160759	262.0
5.9187	510.769077908	234.0
5.929	510.932939592	212.0
5.9392	511.09456659	241.0
5.9494	511.25555547	212.0
5.9597	511.417477705	222.0
5.9699	511.577191703	205.0
5.9802	511.737831665	194.0
5.9904	511.896280877	204.0
6.0006	512.054104518	190.0
6.0109	512.212843163	158.0
6.0211	512.369416988	146.0
6.0314	512.526898571	200.0
6.0416	512.682232477	174.0
6.0518	512.836953112	172.0
6.0621	512.99257076	152.0
6.0723	513.146066151	172.0
6.0826	513.300451452	150.0
6.0928	513.452731303	141.0
6.103	513.60440994	135.0
6.1133	513.756967954	142.0
6.1235	513.907445437	132.0
6.1338	514.058795334	116.0
6.144	514.208081176	123.0
6.1542	514.356777624	105.0
6.1645	514.50633616	113.0
6.1747	514.653855071	118.0
6.185	514.802229243	118.0
6.1952	514.948579942	99.0
6.2054	515.094352836	99.0
6.2157	515.240970867	93.0
6.2259	515.385589375	96.0
6.2362	515.531046329	77.0
6.2464	515.674519593	94.0
6.2566	515.817426413	80.0
6.2669	515.961161753	93.0
6.2771	516.102936884	89.0
6.2874	516.245533975	70.0
6.2976	516.386186379	68.0
6.3078	516.526283475	72.0
6.3181	516.667192802	67.0
6.3283	516.80618046	67.0
6.3386	516.945973917	63.0
6.3488	517.083860922	52.0
6.359	517.221203536	61.0
6.3693	517.359342413	53.0
6.3795	517.495597403	46.0
6.3898	517.632642349	62.0
6.4	517.767818326	45.0
6.4102	517.902460616	37.0
6.4205	518.037883513	61.0
6.4307	518.171459562	35.0
6.441	518.305810036	47.0
6.4512	518.438328287	56.0
6.4614	518.570323345	44.0
6.4717	518.703083661	33.0
6.4819	518.834033441	30.0
6.4922	518.96574242	39.0
6.5024	519.095655199	29.0
6.5126	519.225055072	42.0
6.5229	519.355205158	13.0
6.5331	519.483580304	34.0
6.5434	519.612699722	26.0
6.5536	519.740058257	25.0
6.5638	519.866913969	30.0
6.5741	519.994505144	20.0
6.5843	520.120356277	22.0
6.5946	520.246937049	25.0
6.6048	520.371791559	14.0
6.615	520.496153132	25.0
6.6253	520.621235708	30.0
6.6355	520.744612453	18.0
6.6458	520.868704492	29.0
6.656	520.991104208	21.0
6.6662	521.11302068	14.0
6.6765	521.235643979	9.0
6.6867	521.356594986	25.0
6.697	521.478247222	16.0
6.7072	521.59824041	28.0
6.7174	521.717759854	14.0
6.7277	521.837972228	13.0
6.7379	521.95654519	17.0
6.7482	522.075805594	17.0
6.7584	522.193439568	19.0
6.7686	522.310609113	13.0
6.7789	522.428457965	12.0
6.7891	522.544699636	15.0
6.7994	522.661615234	16.0
6.8096	522.77693638	14.0
6.8198	522.891802228	12.0
6.8301	523.007334026	15.0
6.8403	523.121290244	8.0
6.8506	523.235907137	13.0
6.8608	523.348960928	13.0
6.871	523.461568372	11.0
6.8813	523.574828673	10.0
6.8915	523.686544371	12.0
6.9018	523.798907756	8.0
6.912	523.909738771	3.0
6.9222	524.020132214	15.0
6.9325	524.131165678	9.0
6.9427	524.240684909	5.0
6.953	524.350839092	7.0
6.9632	524.459491032	5.0
6.9734	524.567714005	10.0
6.9837	524.676564415	10.0
6.9939	524.783930363	12.0
7.0042	524.891918779	4.0
7.0144	524.998434489	1.0
7.0246	525.104529665	7.0
7.0349	525.211239942	5.0
7.0451	525.316494943	10.0
7.0554	525.422360175	5.0
7.0656	525.526781655	8.0
7.0758	525.63079087	11.0
7.0861	525.735403092	6.0
7.0963	525.83858865	4.0
7.1066	525.942372441	8.0
7.1168	526.044740867	9.0
7.127	526.146705133	7.0
7.1373	526.24926055	4.0
7.1475	526.350417354	8.0
7.1578	526.452160628	7.0
7.168	526.552516365	2.0
7.1782	526.652475888	4.0
7.1885	526.75301494	11.0
7.1987	526.852182876	6.0
7.209	526.951925753	7.0
7.2192	527.050308372	8.0
7.2294	527.148302568	3.0
7.2397	527.246864899	4.0
7.2499	527.344083072	3.0
7.2602	527.441864881	7.0
7.2704	527.538313178	4.0
7.2806	527.634380687	4.0
7.2909	527.731005162	6.0
7.3011	527.826311906	3.0
7.3114	527.922171205	6.0
7.3216	528.016723209	2.0
7.3318	528.110901914	1.0
7.3421	528.205626632	7.0
7.3523	528.299059529	5.0
7.3626	528.393034116	1.0
7.3728	528.485727112	5.0
7.383	528.578054147	9.0
7.3933	528.670916461	3.0
7.4035	528.762512353	5.0
7.4138	528.854639284	1.0
7.424	528.945509822	3.0
7.4342	529.036021594	3.0
7.4445	529.127058121	3.0
7.4547	529.216853125	6.0
7.465	529.307168727	3.0
7.4752	529.396252639	4.0
7.4854	529.484984839	7.0
7.4957	529.574231475	7.0
7.5059	529.662260999	1.0
7.5162	529.750800886	7.0
7.5264	529.838133298	3.0
7.5366	529.925120914	4.0
7.5469	530.012612852	2.0
7.5571	530.098911608	4.0
7.5674	530.185710692	4.0
7.5776	530.271326041	1.0
7.5878	530.356603374	6.0
7.5981	530.442375113	6.0
7.6083	530.526977129	4.0
7.6186	530.612069636	3.0
7.6288	530.696001683	4.0
7.639	530.779602358	5.0
7.6493	530.86368772	5.0
7.6595	530.946626356	4.0
7.6698	531.03004584	4.0
7.68	531.11232768	1.0
7.6902	531.194284663	5.0
7.7005	531.276716803	2.0
7.7107	531.358024764	1.0
7.721	531.439804118	6.0
7.7312	531.520468196	0.0
7.7414	531.600813805	5.0
7.7517	531.681625228	7.0
7.7619	531.761334574	1.0
7.7722	531.841506046	2.0
7.7824	531.920584168	3.0
7.7926	531.999350084	6.0
7.8029	532.078572655	5.0
