TL-DOS Lehrstuhlversuch
detector=R1408301
job_number=2015-10-20-009
irradiation_dose [mSv]=2.0

[BEGIN DATA]
time [sec] 	 temperature [K] 	 photoncount 
0.0	197.376430059	0.0
0.0102	198.515529526	0.0
0.0205	199.662142213	1.0
0.0307	200.794015274	2.0
0.041	201.933353891	1.0
0.0512	203.05804639	2.0
0.0614	204.179183112	0.0
0.0717	205.307714574	5.0
0.0819	206.421738844	1.0
0.0922	207.543110944	1.0
0.1024	208.650067884	1.0
0.1126	209.753525118	2.0
0.1229	210.864260484	1.0
0.1331	211.960717425	0.0
0.1434	213.064406326	2.0
0.1536	214.153907383	0.0
0.1638	215.239963922	1.0
0.1741	216.333183822	2.0
0.1843	217.412350458	0.0
0.1946	218.49863501	1.0
0.2048	219.570955451	0.0
0.215	220.639885691	0.0
0.2253	221.715866332	0.0
0.2355	222.778015317	1.0
0.2458	223.847169975	0.0
0.256	224.902580725	0.0
0.2662	225.954654735	0.0
0.2765	227.013667966	0.0
0.2867	228.059067657	0.0
0.297	229.111362546	0.0
0.3072	230.150130258	0.0
0.3174	231.185613848	0.0
0.3277	232.227927233	0.0
0.3379	233.256841752	0.0
0.3482	234.292542738	0.0
0.3584	235.314929861	0.0
0.3686	236.33408465	0.0
0.3789	237.359961533	0.0
0.3891	238.37265084	0.0
0.3994	239.392019596	0.0
0.4096	240.398284439	0.0
0.4198	241.40136792	0.0
0.4301	242.411067491	0.0
0.4403	243.407787446	0.0
0.4506	244.41108152	0.0
0.4608	245.401478319	0.0
0.471	246.388743924	0.0
0.4813	247.382521289	0.0
0.4915	248.363523716	0.0
0.5018	249.350996593	0.0
0.512	250.325775576	0.0
0.5222	251.29747274	0.0
0.5325	252.27557898	0.0
0.5427	253.241111733	0.0
0.553	254.213012902	0.0
0.5632	255.172420349	0.0
0.5734	256.128794577	1.0
0.5837	257.091476813	0.0
0.5939	258.041783837	0.0
0.6042	258.998358851	0.0
0.6144	259.942637161	0.0
0.6246	260.883930083	0.0
0.6349	261.831431541	0.0
0.6451	262.766752934	0.0
0.6554	263.708243476	0.0
0.6656	264.637631224	0.0
0.6758	265.56408066	0.0
0.6861	266.496640729	0.0
0.6963	267.417212803	0.0
0.7066	268.343856744	0.0
0.7168	269.258588743	1.0
0.727	270.170428765	1.0
0.7373	271.088283059	0.0
0.7475	271.994338401	0.0
0.7578	272.90636986	0.0
0.768	273.806677219	0.0
0.7782	274.704138207	1.0
0.7885	275.607518626	0.0
0.7987	276.499286153	0.0
0.809	277.396935558	0.0
0.8192	278.283045744	0.0
0.8294	279.166354443	0.0
0.8397	280.055489229	1.0
0.8499	280.933194249	0.0
0.8602	281.816688396	0.0
0.8704	282.688825287	0.0
0.8806	283.558204869	0.0
0.8909	284.433318664	0.0
0.9011	285.297182933	0.0
0.9114	286.166745038	1.0
0.9216	287.025128983	0.0
0.9318	287.880799099	1.0
0.9421	288.742113005	1.0
0.9523	289.59235478	0.0
0.9626	290.448204542	0.0
0.9728	291.293052414	1.0
0.983	292.135229253	0.0
0.9933	292.982960883	1.0
1.0035	293.819794982	0.0
1.0138	294.662148633	0.0
1.024	295.493673887	0.0
1.0342	296.322570227	0.0
1.0445	297.156933763	0.0
1.0547	297.980571615	0.0
1.065	298.809641979	0.0
1.0752	299.628054702	1.0
1.0854	300.443879967	0.0
1.0957	301.265086215	0.0
1.1059	302.075735914	0.0
1.1162	302.891732458	0.0
1.1264	303.697239425	0.0
1.1366	304.500199736	0.0
1.1469	305.308456176	2.0
1.1571	306.106322536	1.0
1.1674	306.909451426	0.0
1.1776	307.70225615	1.0
1.1878	308.492554378	0.0
1.1981	309.288065218	0.0
1.2083	310.073349823	0.0
1.2186	310.863813971	0.0
1.2288	311.644116758	0.0
1.239	312.421952574	0.0
1.2493	313.204918804	1.0
1.2595	313.977820058	1.0
1.2698	314.755819178	1.0
1.28	315.523817174	2.0
1.2902	316.289387101	2.0
1.3005	317.06000654	0.0
1.3107	317.820719719	2.0
1.321	318.586450375	0.0
1.3312	319.342337617	1.0
1.3414	320.09583508	1.0
1.3517	320.854302426	1.0
1.3619	321.603019728	3.0
1.3722	322.356675385	1.0
1.3824	323.100642851	0.0
1.3926	323.842258222	0.0
1.4029	324.588765106	0.0
1.4131	325.325675696	1.0
1.4234	326.067446767	3.0
1.4336	326.799682423	4.0
1.4438	327.529603075	2.0
1.4541	328.264338104	1.0
1.4643	328.989628165	0.0
1.4746	329.719702061	2.0
1.4848	330.440390909	4.0
1.495	331.158801258	3.0
1.5053	331.881950065	4.0
1.5155	332.595802845	1.0
1.5258	333.314364023	4.0
1.536	334.023688146	1.0
1.5462	334.730769702	4.0
1.5565	335.442514994	3.0
1.5667	336.145110849	0.0
1.577	336.852340854	4.0
1.5872	337.550479467	0.0
1.5974	338.246410876	1.0
1.6077	338.946932477	3.0
1.6179	339.638448922	4.0
1.6282	340.334526439	3.0
1.6384	341.021655928	6.0
1.6486	341.70661302	3.0
1.6589	342.396087919	3.0
1.6691	343.076699667	5.0
1.6794	343.761800563	2.0
1.6896	344.438094534	3.0
1.6998	345.112250364	1.0
1.7101	345.790852761	2.0
1.7203	346.460731771	5.0
1.7306	347.135029138	9.0
1.7408	347.800658459	6.0
1.751	348.464183357	7.0
1.7613	349.132084701	7.0
1.7715	349.79140022	11.0
1.7818	350.455064422	9.0
1.792	351.110197268	8.0
1.8022	351.763258874	5.0
1.8125	352.420627914	10.0
1.8227	353.069546521	11.0
1.833	353.722745235	12.0
1.8432	354.367547125	12.0
1.8534	355.010310439	12.0
1.8637	355.657313261	9.0
1.8739	356.295998907	8.0
1.8842	356.938897166	16.0
1.8944	357.573531013	11.0
1.9046	358.20615843	12.0
1.9149	358.842958502	17.0
1.9251	359.471572553	8.0
1.9354	360.104332788	18.0
1.9456	360.728958934	17.0
1.9558	361.35161029	11.0
1.9661	361.978368501	10.0
1.9763	362.597069779	14.0
1.9866	363.219851858	17.0
1.9968	363.834628118	27.0
2.007	364.447460728	19.0
2.0173	365.064335431	22.0
2.0275	365.673280253	19.0
2.0378	366.286241525	28.0
2.048	366.891323222	35.0
2.0582	367.494491921	23.0
2.0685	368.101638971	30.0
2.0787	368.700981189	29.0
2.089	369.30427652	27.0
2.0992	369.899816532	37.0
2.1094	370.493473712	42.0
2.1197	371.091046508	40.0
2.1299	371.680937547	43.0
2.1402	372.274719362	37.0
2.1504	372.860868154	49.0
2.1606	373.445163804	35.0
2.1709	374.033313324	53.0
2.1811	374.613902223	62.0
2.1914	375.198320543	41.0
2.2016	375.775226207	56.0
2.2118	376.350307952	66.0
2.2221	376.929182794	74.0
2.2323	377.500616241	56.0
2.2426	378.075818722	84.0
2.2528	378.643627015	77.0
2.263	379.209640151	82.0
2.2733	379.77938657	78.0
2.2835	380.341808939	89.0
2.2938	380.907940907	78.0
2.304	381.466795288	85.0
2.3142	382.02388282	87.0
2.3245	382.584644765	100.0
2.3347	383.138198154	110.0
2.345	383.695402644	125.0
2.3552	384.24544431	114.0
2.3654	384.793746989	118.0
2.3757	385.345666137	128.0
2.3859	385.890490403	137.0
2.3962	386.438908196	132.0
2.4064	386.980276116	149.0
2.4166	387.519932472	118.0
2.4269	388.063148268	150.0
2.4371	388.599381063	161.0
2.4474	389.139150718	152.0
2.4576	389.671981671	158.0
2.4678	390.20312805	182.0
2.4781	390.737777739	188.0
2.4883	391.265554545	207.0
2.4986	391.796812436	214.0
2.5088	392.321241044	227.0
2.519	392.844011641	222.0
2.5293	393.370230305	229.0
2.5395	393.889684465	246.0
2.5498	394.412564817	227.0
2.56	394.928723578	272.0
2.5702	395.443250475	247.0
2.5805	395.961171064	290.0
2.5907	396.472433821	295.0
2.601	396.98706874	286.0
2.6112	397.495088064	287.0
2.6214	398.001501257	340.0
2.6317	398.511254626	330.0
2.6419	399.014455151	316.0
2.6522	399.520974663	323.0
2.6624	400.020982903	324.0
2.6726	400.519410338	304.0
2.6829	401.021125278	353.0
2.6931	401.516390708	350.0
2.7034	402.014922786	370.0
2.7136	402.50704627	349.0
2.7238	402.997613877	370.0
2.7341	403.491417148	364.0
2.7443	403.978872613	352.0
2.7546	404.469543213	374.0
2.7648	404.953906278	400.0
2.775	405.436738001	394.0
2.7853	405.922754364	436.0
2.7955	406.40252302	347.0
2.8058	406.885456113	376.0
2.816	407.362181134	378.0
2.8262	407.837398963	387.0
2.8365	408.315751211	393.0
2.8467	408.787954275	418.0
2.857	409.263271874	384.0
2.8672	409.732479298	362.0
2.8774	410.200203297	383.0
2.8877	410.671012289	366.0
2.8979	411.135769063	371.0
2.9082	411.603591259	358.0
2.9184	412.065399634	353.0
2.9286	412.525747975	335.0
2.9389	412.989132661	363.0
2.9491	413.446560569	290.0
2.9594	413.907005559	335.0
2.9696	414.361531561	341.0
2.9798	414.814620554	308.0
2.9901	415.27069801	303.0
3.0003	415.720912623	273.0
3.0106	416.17409674	273.0
3.0208	416.621455207	296.0
3.031	417.067399325	239.0
3.0413	417.516284781	245.0
3.0515	417.959399846	273.0
3.0618	418.405437588	240.0
3.072	418.845741547	231.0
3.0822	419.28465346	196.0
3.0925	419.726460328	210.0
3.1027	420.1625878	201.0
3.113	420.601591861	208.0
3.1232	421.034952556	201.0
3.1334	421.466943157	214.0
3.1437	421.901783061	181.0
3.1539	422.331033129	202.0
3.1642	422.763114425	197.0
3.1744	423.189641346	197.0
3.1846	423.614819778	176.0
3.1949	424.042802583	175.0
3.2051	424.465283698	183.0
3.2154	424.890551395	148.0
3.2256	425.310352306	196.0
3.2358	425.728825992	162.0
3.2461	426.150059828	170.0
3.2563	426.565878733	157.0
3.2666	426.984440276	188.0
3.2768	427.39762124	199.0
3.287	427.80949591	171.0
3.2973	428.224087204	192.0
3.3075	428.633348955	167.0
3.3178	429.045310096	208.0
3.328	429.451975506	196.0
3.3382	429.85735522	179.0
3.3485	430.265408719	209.0
3.3587	430.668216719	201.0
3.369	431.073681542	195.0
3.3792	431.473934142	208.0
3.3894	431.872921322	208.0
3.3997	432.274540122	244.0
3.4099	432.670996142	209.0
3.4202	433.070067087	256.0
3.4304	433.464008003	268.0
3.4406	433.856703454	242.0
3.4509	434.251989026	250.0
3.4611	434.642193231	250.0
3.4714	435.034971126	254.0
3.4816	435.422699889	263.0
3.4918	435.809202826	280.0
3.5021	436.198255041	268.0
3.5123	436.582306017	279.0
3.5226	436.968890099	272.0
3.5328	437.350504669	298.0
3.543	437.730912744	290.0
3.5533	438.113829897	308.0
3.5635	438.491824676	280.0
3.5738	438.872312616	295.0
3.584	439.247909411	309.0
3.5942	439.622318735	294.0
3.6045	439.99919757	310.0
3.6147	440.371231655	320.0
3.625	440.745719585	328.0
3.6352	441.115393499	288.0
3.6454	441.483898668	353.0
3.6557	441.854834407	322.0
3.6659	442.221001792	336.0
3.6762	442.589584328	327.0
3.6864	442.953428761	356.0
3.6966	443.316122879	355.0
3.7069	443.681209239	339.0
3.7171	444.041602439	339.0
3.7274	444.404372703	337.0
3.7376	444.762479582	349.0
3.7478	445.119454285	351.0
3.7581	445.478783506	334.0
3.7683	445.833493575	337.0
3.7786	446.190543224	374.0
3.7888	446.543003025	339.0
3.799	446.894348504	319.0
3.8093	447.248011372	336.0
3.8195	447.597127929	325.0
3.8298	447.948547172	349.0
3.84	448.295448946	323.0
3.8502	448.64125397	332.0
3.8605	448.989339839	348.0
3.8707	449.332951089	329.0
3.881	449.678828713	340.0
3.8912	450.020260106	325.0
3.9014	450.360612043	340.0
3.9117	450.703208859	319.0
3.9219	451.041401616	321.0
3.9322	451.38182501	339.0
3.9424	451.717872284	309.0
3.9526	452.052857127	317.0
3.9629	452.390051447	288.0
3.9731	452.722911157	287.0
3.9834	453.057966329	342.0
3.9936	453.388714389	285.0
4.0038	453.718416771	293.0
4.0141	454.050293789	263.0
4.0243	454.377904551	262.0
4.0346	454.707676153	281.0
4.0448	455.033208564	289.0
4.055	455.357711786	274.0
4.0653	455.684355352	297.0
4.0755	456.006799937	283.0
4.0858	456.331371288	265.0
4.096	456.651770297	259.0
4.1062	456.971156346	282.0
4.1165	457.292648987	276.0
4.1267	457.610008862	262.0
4.137	457.929461966	262.0
4.1472	458.244808522	279.0
4.1574	458.559158092	261.0
4.1677	458.875581035	279.0
4.1779	459.187936382	259.0
4.1882	459.502351949	267.0
4.1984	459.812725726	261.0
4.2086	460.122118239	265.0
4.2189	460.433551428	260.0
4.2291	460.740981166	253.0
4.2394	461.050438635	247.0
4.2496	461.355918049	275.0
4.2598	461.660431674	245.0
4.2701	461.966953795	231.0
4.2803	462.269535596	286.0
4.2906	462.574113151	248.0
4.3008	462.874775384	245.0
4.311	463.174487057	238.0
4.3213	463.476175553	243.0
4.3315	463.773985865	255.0
4.3418	464.073760461	257.0
4.352	464.369681476	253.0
4.3622	464.664666919	265.0
4.3725	464.961598014	251.0
4.3827	465.25471208	268.0
4.393	465.549759455	250.0
4.4032	465.841014016	272.0
4.4134	466.13134776	268.0
4.4237	466.423596474	255.0
4.4339	466.712088351	247.0
4.4442	467.002483049	269.0
4.4544	467.289144744	261.0
4.4646	467.574900142	280.0
4.4749	467.862540312	257.0
4.4851	468.146482888	253.0
4.4954	468.432298279	240.0
4.5056	468.714439534	261.0
4.5158	468.995688783	238.0
4.5261	469.278793083	235.0
4.5363	469.558258097	237.0
4.5466	469.839566393	280.0
4.5568	470.117258491	247.0
4.567	470.39407265	225.0
4.5773	470.672712607	243.0
4.5875	470.947770667	233.0
4.5978	471.224642942	265.0
4.608	471.497956043	235.0
4.6182	471.77040505	266.0
4.6285	472.044651063	244.0
4.6387	472.315371663	228.0
4.649	472.58787787	260.0
4.6592	472.856881028	247.0
4.6694	473.125033718	244.0
4.6797	473.394955077	255.0
4.6899	473.661406616	256.0
4.7002	473.929615603	246.0
4.7104	474.194376783	257.0
4.7206	474.458300905	242.0
4.7309	474.723965806	220.0
4.7411	474.986215604	265.0
4.7514	475.250195136	236.0
4.7616	475.51078123	234.0
4.7718	475.770543467	236.0
4.7821	476.032019031	223.0
4.7923	476.290133346	234.0
4.8026	476.549950118	212.0
4.8128	476.806426965	247.0
4.823	477.062092945	250.0
4.8333	477.319445235	234.0
4.8435	477.57348928	209.0
4.8538	477.829208937	220.0
4.864	478.081641335	229.0
4.8742	478.333275655	207.0
4.8845	478.586569692	233.0
4.8947	478.836607652	226.0
4.905	479.088294801	246.0
4.9152	479.336746529	245.0
4.9254	479.584412764	227.0
4.9357	479.833712544	238.0
4.9459	480.079807592	248.0
4.9562	480.327525823	216.0
4.9664	480.572059654	203.0
4.9766	480.815820377	221.0
4.9869	481.061188886	196.0
4.9971	481.3034032	178.0
5.0074	481.5472151	205.0
5.0176	481.787892815	222.0
5.0278	482.027809614	201.0
5.0381	482.269308845	211.0
5.0483	482.50770362	219.0
5.0586	482.747670789	232.0
5.0688	482.984553196	218.0
5.079	483.220686687	211.0
5.0893	483.458377656	197.0
5.0995	483.693013124	204.0
5.1098	483.92919619	217.0
5.12	484.162343139	210.0
5.1302	484.394752981	236.0
5.1405	484.628695742	250.0
5.1507	484.859631184	213.0
5.161	485.09208982	214.0
5.1712	485.321560216	232.0
5.1814	485.550305129	199.0
5.1917	485.780558787	191.0
5.2019	486.00785255	214.0
5.2122	486.236645487	211.0
5.2224	486.462497307	190.0
5.2326	486.687635084	201.0
5.2429	486.914257814	208.0
5.2531	487.137967324	199.0
5.2634	487.363152368	230.0
5.2736	487.585442674	223.0
5.2838	487.807030196	203.0
5.2941	488.030079255	198.0
5.3043	488.250261034	220.0
5.3146	488.471895078	198.0
5.3248	488.690680032	233.0
5.335	488.908773285	243.0
5.3453	489.128305028	234.0
5.3555	489.345014705	200.0
5.3658	489.563153746	206.0
5.376	489.778488625	205.0
5.3862	489.99314271	197.0
5.3965	490.209212601	213.0
5.4067	490.422504929	211.0
5.417	490.637204081	218.0
5.4272	490.849143289	177.0
5.4374	491.060412441	192.0
5.4477	491.273075071	228.0
5.4579	491.483003939	225.0
5.4682	491.694317445	197.0
5.4784	491.902914531	227.0
5.4886	492.110852126	198.0
5.4989	492.320161226	220.0
5.5091	492.526779673	203.0
5.5194	492.734760923	195.0
5.5296	492.940068589	213.0
5.5398	493.144727164	218.0
5.5501	493.350735616	221.0
5.5603	493.554095844	186.0
5.5706	493.758797386	193.0
5.5808	493.960867504	207.0
5.591	494.162298766	231.0
5.6013	494.365058619	213.0
5.6115	494.565212008	215.0
5.6218	494.76668556	201.0
5.632	494.965569184	216.0
5.6422	495.163824025	232.0
5.6525	495.363386507	210.0
5.6627	495.560383627	213.0
5.673	495.758680092	232.0
5.6832	495.954427469	204.0
5.6934	496.149555981	189.0
5.7037	496.345971511	203.0
5.7139	496.539862134	223.0
5.7242	496.735031612	222.0
5.7344	496.9276922	218.0
5.7446	497.119743681	218.0
5.7549	497.313061886	206.0
5.7651	497.503894998	230.0
5.7754	497.6959868	223.0
5.7856	497.885609274	208.0
5.7958	498.074632247	222.0
5.8061	498.264901968	184.0
5.8163	498.452725786	209.0
5.8266	498.641788443	187.0
5.8368	498.828420713	194.0
5.847	499.014462934	206.0
5.8573	499.201732245	202.0
5.8675	499.386594221	202.0
5.8778	499.572675502	208.0
5.888	499.75636472	194.0
5.8982	499.939473195	201.0
5.9085	500.123789409	195.0
5.9187	500.30573625	236.0
5.929	500.488883168	182.0
5.9392	500.669675745	195.0
5.9494	500.849896737	199.0
5.9597	501.031306421	201.0
5.9699	501.210384097	195.0
5.9802	501.390642925	184.0
5.9904	501.568584539	185.0
6.0006	501.74596358	171.0
6.0109	501.92451257	205.0
6.0211	502.100766325	171.0
6.0314	502.278182606	199.0
6.0416	502.453318214	198.0
6.0518	502.62790012	162.0
6.0621	502.803633526	189.0
6.0723	502.977107891	149.0
6.0826	503.15172645	177.0
6.0928	503.3241003	180.0
6.103	503.49592918	177.0
6.1133	503.668891402	162.0
6.1235	503.839630206	156.0
6.1338	504.011495161	168.0
6.144	504.181150805	175.0
6.1542	504.350270072	164.0
6.1645	504.520504809	145.0
6.1747	504.68855119	136.0
6.185	504.857705963	162.0
6.1952	505.024686264	141.0
6.2054	505.191138647	114.0
6.2157	505.35868891	128.0
6.2259	505.524085325	151.0
6.2362	505.690572654	128.0
6.2464	505.854919801	148.0
6.2566	506.018747354	131.0
6.2669	506.183655474	125.0
6.2771	506.346443712	130.0
6.2874	506.510305661	134.0
6.2976	506.672061175	107.0
6.3078	506.833305291	120.0
6.3181	506.995612933	109.0
6.3283	507.155834122	117.0
6.3386	507.317112091	103.0
6.3488	507.476316842	109.0
6.359	507.635018259	119.0
6.3693	507.794766431	86.0
6.3795	507.952461052	105.0
6.3898	508.111195787	94.0
6.4	508.267889999	100.0
6.4102	508.424088813	95.0
6.4205	508.581317876	90.0
6.4307	508.736525771	100.0
6.441	508.892757378	97.0
6.4512	509.046980639	80.0
6.4614	509.200716315	98.0
6.4717	509.355465993	81.0
6.4819	509.508226375	81.0
6.4922	509.661994327	82.0
6.5024	509.813785603	89.0
6.5126	509.965096982	88.0
6.5229	510.117406374	88.0
6.5331	510.267757839	72.0
6.5434	510.419100986	64.0
6.5536	510.568498627	65.0
6.5638	510.717423939	70.0
6.5741	510.867331525	66.0
6.5843	511.01531206	49.0
6.5946	511.164268639	70.0
6.6048	511.31131039	55.0
6.615	511.457887262	63.0
6.6253	511.605430918	54.0
6.6355	511.751077911	61.0
6.6458	511.897685555	45.0
6.656	512.042408568	56.0
6.6662	512.186674032	43.0
6.6765	512.331891035	60.0
6.6867	512.475241284	50.0
6.697	512.619537036	47.0
6.7072	512.761977875	47.0
6.7174	512.903968381	51.0
6.7277	513.04689542	46.0
6.7379	513.187985143	43.0
6.7482	513.330005458	51.0
6.7584	513.470200113	37.0
6.7686	513.609951534	40.0
6.7789	513.750624721	33.0
6.7891	513.889489564	36.0
6.7994	514.029270326	36.0
6.8096	514.167254215	25.0
6.8198	514.304801861	36.0
6.8301	514.443256737	29.0
6.8403	514.579931786	30.0
6.8506	514.717508309	29.0
6.8608	514.853316296	28.0
6.871	514.988694919	23.0
6.8813	515.124966465	26.0
6.8915	515.25948625	25.0
6.9018	515.394893295	23.0
6.912	515.528559692	27.0
6.9222	515.661803495	27.0
6.9325	515.795926141	23.0
6.9427	515.92832465	24.0
6.953	516.061596426	17.0
6.9632	516.193155004	17.0
6.9734	516.324297652	24.0
6.9837	516.456305284	13.0
6.9939	516.586615968	16.0
7.0042	516.717786148	14.0
7.0144	516.847270145	18.0
7.0246	516.976344772	19.0
7.0349	517.106270743	24.0
7.0451	517.234526524	10.0
7.0554	517.363628249	18.0
7.0656	517.491070381	15.0
7.0758	517.618109597	12.0
7.0861	517.745986732	11.0
7.0963	517.872220016	18.0
7.1066	517.999285903	13.0
7.1168	518.124718368	19.0
7.127	518.249754271	8.0
7.1373	518.375614879	11.0
7.1475	518.499857559	14.0
7.1578	518.624919712	6.0
7.168	518.7483742	10.0
7.1782	518.87143838	8.0
7.1885	518.995314262	9.0
7.1987	519.117597727	17.0
7.209	519.240687744	9.0
7.2192	519.362195447	8.0
7.2294	519.483318997	8.0
7.2397	519.605241448	13.0
7.2499	519.725596595	12.0
7.2602	519.846745574	7.0
7.2704	519.966337192	5.0
7.2806	520.085550714	7.0
7.2909	520.20555054	12.0
7.3011	520.324007776	4.0
7.3114	520.443246326	8.0
7.3216	520.560952074	5.0
7.3318	520.678285688	10.0
7.3421	520.796393206	11.0
7.3523	520.91298246	4.0
7.3626	521.030340708	8.0
7.3728	521.146190324	7.0
7.383	521.261673675	6.0
7.3933	521.377918726	5.0
7.4035	521.492669454	4.0
7.4138	521.608177051	9.0
7.424	521.722199805	7.0
7.4342	521.83586207	5.0
7.4445	521.950274023	8.0
7.4547	522.063215218	7.0
7.465	522.176901346	2.0
7.4752	522.289126047	5.0
7.4854	522.400995943	4.0
7.4957	522.513603705	3.0
7.5059	522.624763903	4.0
7.5162	522.736657285	4.0
7.5264	522.847112287	7.0
7.5366	522.957218078	2.0
7.5469	523.0680501	7.0
7.5571	523.177457384	2.0
7.5674	523.287586292	3.0
7.5776	523.396299501	3.0
7.5878	523.504669006	1.0
7.5981	523.61375329	6.0
7.6083	523.721435304	4.0
7.6186	523.829827561	1.0
7.6288	523.936826443	6.0
7.639	524.043487043	2.0
7.6493	524.150851149	2.0
7.6595	524.256835098	7.0
7.6698	524.363518091	1.0
7.68	524.468829681	4.0
7.6902	524.573808322	4.0
7.7005	524.679479377	3.0
7.7107	524.783792038	4.0
7.721	524.88879272	6.0
7.7312	524.992443625	1.0
7.7414	525.095766832	2.0
7.7517	525.199771534	4.0
7.7619	525.302439262	4.0
7.7722	525.405784161	2.0
7.7824	525.507800569	1.0
7.7926	525.609494447	1.0
7.8029	525.711859072	7.0
7.8131	525.812907807	0.0
