TL-DOS Lehrstuhlversuch
detector=R1408305
job_number=2015-10-21-011
irradiation_dose [mSv]=3.0

[BEGIN DATA]
time [sec] 	 temperature [K] 	 photoncount 
0.0	119.733071146	0.0
0.0102	121.584663478	0.0
0.0205	123.446289715	1.0
0.0307	125.281836633	1.0
0.041	127.127330504	2.0
0.0512	128.946971052	0.0
0.0614	130.75874864	3.0
0.0717	132.580344375	0.0
0.0819	134.376421572	0.0
0.0922	136.182231835	0.0
0.1024	137.962744697	2.0
0.1126	139.735563677	1.0
0.1229	141.517989684	1.0
0.1331	143.275445878	2.0
0.1434	145.042425848	2.0
0.1536	146.784652386	1.0
0.1638	148.519350483	0.0
0.1741	150.263449028	1.0
0.1843	151.983114685	1.0
0.1946	153.712099328	2.0
0.2048	155.416862812	0.0
0.215	157.114259739	4.0
0.2253	158.820854977	1.0
0.2355	160.503542706	1.0
0.2458	162.195349035	0.0
0.256	163.863455033	0.0
0.2662	165.524352876	0.0
0.2765	167.194251238	0.0
0.2867	168.840756175	1.0
0.297	170.496183635	0.0
0.3072	172.12842039	0.0
0.3174	173.753603988	0.0
0.3277	175.387594567	0.0
0.3379	176.998694749	0.0
0.3482	178.618525594	0.0
0.3584	180.215664403	0.0
0.3686	181.805901718	0.0
0.3789	183.404756639	0.0
0.3891	184.981213373	0.0
0.3994	186.566213035	0.0
0.4096	188.129008608	0.0
0.4198	189.68505109	0.0
0.4301	191.249525873	0.0
0.4403	192.792084098	0.0
0.4506	194.343001551	0.0
0.4608	195.87219237	1.0
0.471	197.394775309	0.0
0.4813	198.925609229	0.0
0.4915	200.434997863	0.0
0.5018	201.952565977	1.0
0.512	203.448874643	0.0
0.5222	204.938717519	1.0
0.5325	206.436633956	0.0
0.5427	207.913566243	0.0
0.553	209.398502128	0.0
0.5632	210.862635706	0.0
0.5734	212.320442527	1.0
0.5837	213.786149304	0.0
0.5939	215.231323153	0.0
0.6042	216.684328498	0.0
0.6144	218.116978849	0.0
0.6246	219.543438486	0.0
0.6349	220.977628206	0.0
0.6451	222.391726518	0.0
0.6554	223.813487925	0.0
0.6656	225.215332031	0.0
0.6758	226.611118542	0.0
0.6861	228.014468917	0.0
0.6963	229.398159907	0.0
0.7066	230.789349214	0.0
0.7168	232.161049501	0.0
0.727	233.52682245	0.0
0.7373	234.899996616	1.0
0.7475	236.253934133	0.0
0.7578	237.615208731	0.0
0.768	238.95741338	0.0
0.7782	240.293818147	0.0
0.7885	241.637464984	0.0
0.7987	242.962288816	0.0
0.809	244.29429196	0.0
0.8192	245.607635216	0.0
0.8294	246.915303305	1.0
0.8397	248.230057736	0.0
0.8499	249.526393915	0.0
0.8602	250.829755029	0.0
0.8704	252.114857497	0.0
0.8806	253.394406832	1.0
0.8909	254.680890131	1.0
0.9011	255.949351225	0.0
0.9114	257.224686197	0.0
0.9216	258.482155139	1.0
0.9318	259.734190356	0.0
0.9421	260.993010437	0.0
0.9523	262.234195844	0.0
0.9626	263.48210732	0.0
0.9728	264.712536938	0.0
0.983	265.937649673	0.0
0.9933	267.169401377	1.0
1.0035	268.383897605	0.0
1.0138	269.604975271	1.0
1.024	270.808946992	0.0
1.0342	272.007716158	0.0
1.0445	273.212981536	1.0
1.0547	274.401362481	1.0
1.065	275.596183345	0.0
1.0752	276.774266092	0.0
1.0854	277.947258154	0.0
1.0957	279.12660674	0.0
1.1059	280.28943396	0.0
1.1162	281.45856262	1.0
1.1264	282.611313083	0.0
1.1366	283.759082326	0.0
1.1469	284.913071409	1.0
1.1571	286.050894384	0.0
1.1674	287.194883299	1.0
1.1776	288.322846198	2.0
1.1878	289.445934987	0.0
1.1981	290.575109872	0.0
1.2083	291.688466267	0.0
1.2186	292.807856018	1.0
1.2288	293.911564358	3.0
1.239	295.010503397	1.0
1.2493	296.115397662	0.0
1.2595	297.204813583	1.0
1.2698	298.300133123	0.0
1.28	299.38010845	0.0
1.2902	300.45541703	2.0
1.3005	301.536552781	2.0
1.3107	302.602543019	1.0
1.321	303.67430993	0.0
1.3312	304.731062575	1.0
1.3414	305.783248821	2.0
1.3517	306.841136937	2.0
1.3619	307.884205213	5.0
1.3722	308.932925947	4.0
1.3824	309.966955266	1.0
1.3926	310.996516377	4.0
1.4029	312.031656751	1.0
1.4131	313.052295956	2.0
1.4234	314.078466074	4.0
1.4336	315.090260686	1.0
1.4438	316.097683171	1.0
1.4541	317.110564947	4.0
1.4643	318.109257372	2.0
1.4746	319.113361779	2.0
1.4848	320.103399797	4.0
1.495	321.089159701	3.0
1.5053	322.080261506	4.0
1.5155	323.057479072	2.0
1.5258	324.039992248	7.0
1.536	325.008741502	6.0
1.5462	325.973304636	3.0
1.5565	326.943094803	5.0
1.5667	327.899299284	7.0
1.577	328.860685503	4.0
1.5872	329.808603767	6.0
1.5974	330.752425923	10.0
1.6077	331.701362716	5.0
1.6179	332.637005956	9.0
1.6282	333.577719511	10.0
1.6384	334.505254712	11.0
1.6486	335.428781884	16.0
1.6589	336.357313713	6.0
1.6691	337.27283784	12.0
1.6794	338.193323255	10.0
1.6896	339.100913689	9.0
1.6998	340.004582279	15.0
1.7101	340.913147911	10.0
1.7203	341.808985545	15.0
1.7306	342.709677785	12.0
1.7408	343.597752325	15.0
1.751	344.481989351	19.0
1.7613	345.371018119	23.0
1.7715	346.247592579	24.0
1.7818	347.128917256	29.0
1.792	347.997895551	26.0
1.8022	348.863118851	19.0
1.8125	349.733030855	20.0
1.8227	350.590756356	28.0
1.833	351.453129931	30.0
1.8432	352.303422607	27.0
1.8534	353.150041032	26.0
1.8637	354.00124734	43.0
1.8739	354.840529191	31.0
1.8842	355.684359167	39.0
1.8944	356.516368021	39.0
1.9046	357.344781631	38.0
1.9149	358.177684471	30.0
1.9251	358.998919265	53.0
1.9354	359.824604387	57.0
1.9456	360.638722575	55.0
1.9558	361.449322828	52.0
1.9661	362.264315779	56.0
1.9763	363.067891581	63.0
1.9866	363.875822016	72.0
1.9968	364.672434241	59.0
2.007	365.465604177	67.0
2.0173	366.263072355	66.0
2.0275	367.049368887	94.0
2.0378	367.839926414	80.0
2.048	368.619409106	94.0
2.0582	369.395523528	81.0
2.0685	370.175843767	84.0
2.0787	370.945232585	89.0
2.089	371.718790773	106.0
2.0992	372.481512268	117.0
2.1094	373.240937921	136.0
2.1197	374.004478953	121.0
2.1299	374.757323622	144.0
2.1402	375.514248008	146.0
2.1504	376.260568722	149.0
2.1606	377.003664463	158.0
2.1709	377.750787092	149.0
2.1811	378.487443361	191.0
2.1914	379.22809162	183.0
2.2016	379.958364218	192.0
2.2118	380.685481191	192.0
2.2221	381.41653846	187.0
2.2323	382.137354427	215.0
2.2426	382.862076545	249.0
2.2528	383.57664611	203.0
2.263	384.288127904	231.0
2.2733	385.003465267	232.0
2.2835	385.708781547	254.0
2.2938	386.417919983	293.0
2.304	387.117124176	305.0
2.3142	387.813306995	316.0
2.3245	388.513262477	311.0
2.3347	389.203412357	333.0
2.345	389.897302208	324.0
2.3552	390.58147143	343.0
2.3654	391.262684247	364.0
2.3757	391.947588604	386.0
2.3859	392.622898209	390.0
2.3962	393.301867363	396.0
2.4064	393.971324911	381.0
2.4166	394.637889626	375.0
2.4269	395.308066501	426.0
2.4371	395.968854941	395.0
2.4474	396.633224238	371.0
2.4576	397.288286457	429.0
2.4678	397.940518048	446.0
2.4781	398.596284126	414.0
2.4883	399.242863648	480.0
2.4986	399.892947029	483.0
2.5088	400.533923462	482.0
2.519	401.172130132	463.0
2.5293	401.813795289	407.0
2.5395	402.446471427	471.0
2.5498	403.082576081	466.0
2.56	403.709769614	451.0
2.5702	404.334252943	455.0
2.5805	404.962120389	473.0
2.5907	405.581192108	447.0
2.601	406.20361862	492.0
2.6112	406.817325626	472.0
2.6214	407.428380705	491.0
2.6317	408.042747133	494.0
2.6419	408.648506968	447.0
2.6522	409.257549458	426.0
2.6624	409.858059937	420.0
2.6726	410.455975514	417.0
2.6829	411.057131236	378.0
2.6931	411.649865433	426.0
2.7034	412.245811697	405.0
2.7136	412.833409414	379.0
2.7238	413.418468028	348.0
2.7341	414.006697113	350.0
2.7443	414.586685761	337.0
2.7546	415.169817408	328.0
2.7648	415.744780026	325.0
2.775	416.317258138	295.0
2.7853	416.892838548	310.0
2.7955	417.460355715	264.0
2.8058	418.030948296	286.0
2.816	418.593547507	271.0
2.8262	419.153715637	299.0
2.8365	419.716919356	272.0
2.8467	420.272233215	284.0
2.857	420.830556358	267.0
2.8672	421.381058012	252.0
2.8774	421.92918086	232.0
2.8877	422.480274024	247.0
2.8979	423.023646983	244.0
2.9082	423.569964517	265.0
2.9184	424.108628748	268.0
2.9286	424.644965324	252.0
2.9389	425.184208345	313.0
2.9491	425.715897169	261.0
2.9594	426.250467251	257.0
2.9696	426.777548598	298.0
2.9798	427.302352342	280.0
2.9901	427.830000034	272.0
3.0003	428.350255966	297.0
3.0106	428.873331201	297.0
3.0208	429.389078731	321.0
3.031	429.902597633	305.0
3.0413	430.41889933	318.0
3.0515	430.927968211	293.0
3.0618	431.439795772	338.0
3.072	431.944453196	349.0
3.0822	432.446929914	374.0
3.0925	432.952129588	361.0
3.1027	433.450251974	346.0
3.113	433.95107372	388.0
3.1232	434.444879508	385.0
3.1334	434.936551481	375.0
3.1437	435.430887859	376.0
3.1539	435.918299132	417.0
3.1642	436.40835172	446.0
3.1744	436.891539214	408.0
3.1846	437.372638778	416.0
3.1949	437.856345453	432.0
3.2051	438.333275933	434.0
3.2154	438.812790932	419.0
3.2256	439.285588458	454.0
3.2358	439.75634295	463.0
3.2461	440.229648492	441.0
3.2563	440.696323548	475.0
3.2666	441.165527548	504.0
3.2768	441.62815852	482.0
3.287	442.08879039	458.0
3.2973	442.551918455	501.0
3.3075	443.008558609	476.0
3.3178	443.467673327	501.0
3.328	443.920356357	488.0
3.3382	444.371083271	472.0
3.3485	444.824252704	498.0
3.3587	445.271073736	527.0
3.369	445.720316122	541.0
3.3792	446.16326512	538.0
3.3894	446.604300064	490.0
3.3997	447.047725007	520.0
3.4099	447.484938057	480.0
3.4202	447.924520395	501.0
3.4304	448.357944672	530.0
3.4406	448.789496053	528.0
3.4509	449.22338604	481.0
3.4611	449.651197709	533.0
3.4714	450.081327719	510.0
3.4816	450.505432084	495.0
3.4918	450.927703826	506.0
3.5021	451.352263887	510.0
3.5123	451.770876333	450.0
3.5226	452.191757268	509.0
3.5328	452.606742127	491.0
3.543	453.019933771	483.0
3.5533	453.435364528	491.0
3.5635	453.84497556	510.0
3.5738	454.256806303	446.0
3.584	454.662867753	462.0
3.5942	455.067174547	490.0
3.6045	455.473672307	470.0
3.6147	455.874475483	446.0
3.625	456.27745064	503.0
3.6352	456.674780561	470.0
3.6454	457.070393555	423.0
3.6557	457.468150404	409.0
3.6659	457.86033512	442.0
3.6762	458.254645111	431.0
3.6864	458.643431257	413.0
3.6966	459.030537395	391.0
3.7069	459.419741288	430.0
3.7171	459.803492866	434.0
3.7274	460.18932402	405.0
3.7376	460.569750106	411.0
3.7478	460.948532311	431.0
3.7581	461.329367162	399.0
3.7683	461.704866939	428.0
3.7786	462.082401575	411.0
3.7888	462.454647369	375.0
3.799	462.82528463	397.0
3.8093	463.197930398	418.0
3.8195	463.565355813	394.0
3.8298	463.934772331	388.0
3.84	464.299013733	412.0
3.8502	464.66168119	431.0
3.8605	465.026313966	405.0
3.8707	465.385838641	405.0
3.881	465.747311605	367.0
3.8912	466.103720733	420.0
3.9014	466.45858976	388.0
3.9117	466.815381847	429.0
3.9219	467.167175672	427.0
3.9322	467.520875892	404.0
3.9424	467.869621163	402.0
3.9526	468.21685945	405.0
3.9629	468.565979446	370.0
3.9731	468.910208657	390.0
3.9834	469.256303269	430.0
3.9936	469.59754948	424.0
4.0038	469.937321111	426.0
4.0141	470.278933988	384.0
4.0243	470.615761247	424.0
4.0346	470.954413795	413.0
4.0448	471.288322197	426.0
4.055	471.620787727	407.0
4.0653	471.955054911	402.0
4.0755	472.284639381	430.0
4.0858	472.616009893	418.0
4.096	472.942738271	395.0
4.1062	473.268054803	404.0
4.1165	473.595134247	364.0
4.1267	473.917631671	409.0
4.137	474.241876731	429.0
4.1472	474.561579477	401.0
4.1574	474.879900735	431.0
4.1677	475.199946999	360.0
4.1779	475.515509768	373.0
4.1882	475.832782595	408.0
4.1984	476.14561078	379.0
4.2086	476.457087185	410.0
4.2189	476.770251501	398.0
4.2291	477.079028733	365.0
4.2394	477.389479249	426.0
4.2496	477.695580698	416.0
4.2598	478.000359433	367.0
4.2701	478.306789785	386.0
4.2803	478.608927387	389.0
4.2906	478.912702294	396.0
4.3008	479.212221651	370.0
4.311	479.510446736	397.0
4.3213	479.810287924	374.0
4.3315	480.105928669	367.0
4.3418	480.403171512	388.0
4.352	480.696250311	364.0
4.3622	480.98806267	375.0
4.3725	481.28145638	319.0
4.3827	481.57073997	369.0
4.393	481.861591207	365.0
4.4032	482.14836794	355.0
4.4134	482.433905465	363.0
4.4237	482.720990338	332.0
4.4339	483.004053469	367.0
4.4442	483.288650539	373.0
4.4544	483.56926072	353.0
4.4646	483.848658338	366.0
4.4749	484.129570032	346.0
4.4851	484.406546464	399.0
4.4954	484.68502385	346.0
4.5056	484.959600077	370.0
4.5158	485.232989816	382.0
4.5261	485.507861072	361.0
4.5363	485.778881687	326.0
4.5466	486.051370981	358.0
4.5568	486.320043002	318.0
4.567	486.587554048	353.0
4.5773	486.856514754	351.0
4.5875	487.121707619	344.0
4.5978	487.388337583	324.0
4.608	487.651232356	340.0
4.6182	487.912991119	325.0
4.6285	488.17616837	306.0
4.6387	488.435658799	335.0
4.649	488.696555425	336.0
4.6592	488.953797179	332.0
4.6694	489.209927349	309.0
4.6797	489.467445507	346.0
4.6899	489.72135612	311.0
4.7002	489.976642692	312.0
4.7104	490.228352982	347.0
4.7206	490.478975592	367.0
4.7309	490.730956343	295.0
4.7411	490.979407123	329.0
4.7514	491.229204274	297.0
4.7616	491.475502044	340.0
4.7718	491.720735522	320.0
4.7821	491.967297937	330.0
4.7923	492.210406286	319.0
4.8026	492.454832056	333.0
4.8128	492.695833691	342.0
4.823	492.935793919	335.0
4.8333	493.177054509	333.0
4.8435	493.414935305	323.0
4.8538	493.654105193	342.0
4.864	493.889924576	316.0
4.8742	494.124724946	335.0
4.8845	494.360797715	311.0
4.8947	494.593563366	307.0
4.905	494.82759039	316.0
4.9152	495.058338955	357.0
4.9254	495.288090418	338.0
4.9357	495.519086921	317.0
4.9459	495.746847418	335.0
4.9562	495.975842164	293.0
4.9664	496.201628949	322.0
4.9766	496.426440072	334.0
4.9869	496.652469462	321.0
4.9971	496.875332431	329.0
5.0074	497.099403109	352.0
5.0176	497.320334806	328.0
5.0278	497.540311821	338.0
5.0381	497.761480907	343.0
5.0483	497.979551659	332.0
5.0586	498.198804151	324.0
5.0688	498.414985159	321.0
5.079	498.630232014	326.0
5.0893	498.846645306	363.0
5.0995	499.060026888	336.0
5.1098	499.274564799	337.0
5.12	499.486097272	332.0
5.1302	499.696715679	354.0
5.1405	499.908475442	312.0
5.1507	500.117268685	332.0
5.161	500.327193393	346.0
5.1712	500.534177288	350.0
5.1814	500.740266773	310.0
5.1917	500.947473071	299.0
5.2019	501.151776638	322.0
5.2122	501.35718734	325.0
5.2224	501.559720466	313.0
5.2326	501.761378414	333.0
5.2429	501.96412916	315.0
5.2531	502.164039592	286.0
5.2634	502.365033353	311.0
5.2736	502.563211414	306.0
5.2838	502.760533116	313.0
5.2941	502.958924118	292.0
5.3043	503.154535882	306.0
5.3146	503.351207679	279.0
5.3248	503.545124322	275.0
5.335	503.73820302	300.0
5.3453	503.932328025	278.0
5.3555	504.123733554	255.0
5.3658	504.316176322	277.0
5.376	504.50592318	255.0
5.3862	504.694850112	253.0
5.3965	504.884800852	246.0
5.4067	505.072090592	264.0
5.417	505.260395268	258.0
5.4272	505.446062005	251.0
5.4374	505.630926445	249.0
5.4477	505.816792679	227.0
5.4579	506.000055133	270.0
5.4682	506.184310698	222.0
5.4784	506.365985047	226.0
5.4886	506.546874353	220.0
5.4989	506.728743909	235.0
5.5091	506.908065675	227.0
5.5194	507.088359198	225.0
5.5296	507.266127008	202.0
5.5398	507.443126655	210.0
5.5501	507.621085475	195.0
5.5603	507.796551289	212.0
5.5706	507.972967965	213.0
5.5808	508.146913238	222.0
5.591	508.320106866	202.0
5.6013	508.494239042	169.0
5.6115	508.665931819	157.0
5.6218	508.838555011	185.0
5.632	509.008759944	171.0
5.6422	509.178229393	178.0
5.6525	509.348617209	149.0
5.6627	509.516618081	165.0
5.673	509.685529361	156.0
5.6832	509.852074381	136.0
5.6934	510.017899733	133.0
5.7037	510.184623704	154.0
5.7139	510.349012058	138.0
5.7242	510.514291242	125.0
5.7344	510.677255049	131.0
5.7446	510.839514663	135.0
5.7549	511.002653573	129.0
5.7651	511.163507087	134.0
5.7754	511.325232278	131.0
5.7856	511.484691878	85.0
5.7958	511.643462427	110.0
5.8061	511.803093365	105.0
5.8163	511.96048805	81.0
5.8266	512.118735668	86.0
5.8368	512.274766412	93.0
5.847	512.430122922	89.0
5.8573	512.58632132	91.0
5.8675	512.740331551	106.0
5.8778	512.895176375	88.0
5.888	513.047851993	91.0
5.8982	513.199867876	92.0
5.9085	513.352707544	58.0
5.9187	513.503406097	65.0
5.929	513.654921296	78.0
5.9392	513.804313935	55.0
5.9494	513.953061024	75.0
5.9597	514.102614184	55.0
5.9699	514.25007227	67.0
5.9802	514.398329441	61.0
5.9904	514.544509694	48.0
6.0006	514.690058278	54.0
6.0109	514.8363956	45.0
6.0211	514.980682898	49.0
6.0314	515.125752099	43.0
6.0416	515.268789042	44.0
6.0518	515.411207898	55.0
6.0621	515.554398533	44.0
6.0723	515.695583225	42.0
6.0826	515.837533006	43.0
6.0928	515.977494229	44.0
6.103	516.116850656	34.0
6.1133	516.256962266	44.0
6.1235	516.395111067	33.0
6.1338	516.534008506	38.0
6.144	516.670960146	28.0
6.1542	516.807319996	34.0
6.1645	516.944418789	31.0
6.1747	517.07959698	25.0
6.185	517.215507711	30.0
6.1952	517.349514483	26.0
6.2054	517.48294219	25.0
6.2157	517.617092951	14.0
6.2259	517.749364409	32.0
6.2362	517.882352655	21.0
6.2464	518.013477882	24.0
6.2566	518.144036497	24.0
6.2669	518.275302618	22.0
6.2771	518.404729845	20.0
6.2874	518.534858448	21.0
6.2976	518.663164094	15.0
6.3078	518.79091531	19.0
6.3181	518.919358818	16.0
6.3283	519.046002975	15.0
6.3386	519.173333426	13.0
6.3488	519.298880118	15.0
6.359	519.423884303	16.0
6.3693	519.549565894	15.0
6.3795	519.673486825	13.0
6.3898	519.798079292	16.0
6.4	519.920926357	10.0
6.4102	520.04324258	12.0
6.4205	520.166221643	10.0
6.4307	520.287477905	9.0
6.441	520.409391264	6.0
6.4512	520.529596751	10.0
6.4614	520.649282811	7.0
6.4717	520.769617458	10.0
6.4819	520.88826635	10.0
6.4922	521.007558209	10.0
6.5024	521.125178921	7.0
6.5126	521.242291374	9.0
6.5229	521.360038469	9.0
6.5331	521.476136057	9.0
6.5434	521.592862785	7.0
6.5536	521.707954302	4.0
6.5638	521.822548489	9.0
6.5741	521.937763671	2.0
6.5843	522.051364815	4.0
6.5946	522.165581572	6.0
6.6048	522.278198278	8.0
6.615	522.39032835	8.0
6.6253	522.503066062	4.0
6.6355	522.614224444	1.0
6.6458	522.7259852	9.0
6.656	522.836180313	6.0
6.6662	522.945899254	2.0
6.6765	523.05621277	3.0
6.6867	523.164980916	5.0
6.697	523.274338484	7.0
6.7072	523.382164073	6.0
6.7174	523.489523731	7.0
6.7277	523.597465178	2.0
6.7379	523.703894485	4.0
6.7482	523.81090054	3.0
6.7584	523.916407559	4.0
6.7686	524.021458664	6.0
6.7789	524.127079049	5.0
6.7891	524.231219809	2.0
6.7994	524.335924916	2.0
6.8096	524.439163219	9.0
6.8198	524.541955414	8.0
6.8301	524.645304646	1.0
6.8403	524.74720607	13.0
6.8506	524.849659705	3.0
6.8608	524.950678078	3.0
6.871	525.051259935	4.0
6.8813	525.152386851	2.0
6.8915	525.252097092	9.0
6.9018	525.352347669	2.0
6.912	525.451193846	7.0
6.9222	525.549612893	4.0
6.9325	525.64856528	7.0
6.9427	525.746131454	1.0
6.953	525.844226345	2.0
6.9632	525.940947036	3.0
6.9734	526.037249781	4.0
6.9837	526.134074397	3.0
6.9939	526.229542607	1.0
7.0042	526.325528166	6.0
7.0144	526.420169074	1.0
7.0246	526.514401024	4.0
7.0349	526.609143623	3.0
7.0451	526.702558983	3.0
7.0554	526.796480567	1.0
7.0656	526.889086414	5.0
7.0758	526.981292096	2.0
7.0861	527.073997447	1.0
7.0963	527.165404099	4.0
7.1066	527.257306089	1.0
7.1168	527.347920635	2.0
7.127	527.438143621	5.0
7.1373	527.528855531	2.0
7.1475	527.618296668	4.0
7.1578	527.708222492	4.0
7.168	527.796888555	3.0
7.1782	527.885171478	1.0
7.1885	527.973932813	5.0
7.1987	528.061450699	7.0
7.209	528.149442851	2.0
7.2192	528.23620233	5.0
7.2294	528.322586907	3.0
7.2397	528.409439609	3.0
7.2499	528.4950756	3.0
7.2602	528.581175659	4.0
7.2704	528.666069551	0.0
7.2806	528.750596603	3.0
7.2909	528.835581713	1.0
7.3011	528.919376276	2.0
7.3114	529.003624927	1.0
7.3216	529.086693348	1.0
7.3318	529.169402817	3.0
7.3421	529.252560494	4.0
7.3523	529.334553225	1.0
7.3626	529.416990279	2.0
7.3728	529.498272482	2.0
7.383	529.579203452	8.0
7.3933	529.660572991	3.0
7.4035	529.740802634	1.0
7.4138	529.821467047	3.0
7.424	529.90100144	2.0
7.4342	529.980192153	0.0
7.4445	530.059812006	2.0
7.4547	530.138316472	1.0
7.465	530.21724636	0.0
7.4752	530.295070528	4.0
7.4854	530.372558404	8.0
7.4957	530.450466193	2.0
7.5059	530.52728258	3.0
7.5162	530.604515241	3.0
7.5264	530.680665957	2.0
7.5366	530.756487614	4.0
7.5469	530.832720154	5.0
7.5571	530.90788476	2.0
7.5674	530.983456688	2.0
7.5776	531.057969938	1.0
7.5878	531.132161203	3.0
7.5981	531.206754517	4.0
7.6083	531.28030286	2.0
7.6186	531.354249767	4.0
7.6288	531.42716076	1.0
7.639	531.499756693	1.0
7.6493	531.572746028	5.0
7.6595	531.644712863	2.0
7.6698	531.717069692	1.0
7.68	531.788412882	4.0
7.6902	531.859447786	2.0
7.7005	531.930867633	2.0
7.7107	532.001286967	3.0
7.721	532.072087909	1.0
7.7312	532.141897008	4.0
7.7414	532.21140445	1.0
7.7517	532.281288558	2.0
7.7619	532.350193667	1.0
7.7722	532.419472178	1.0
7.7824	532.487780173	3.0
7.7926	532.555792999	1.0
7.8029	532.624174391	3.0
7.8131	532.691597835	1.0
7.8234	532.759386651	3.0
7.8336	532.826225822	2.0
7.8438	532.892776169	2.0
