TL-DOS Lehrstuhlversuch
detector=R1406806
job_number=2015-10-30-003
irradiation_dose [mSv]=0.2

[BEGIN DATA]
time [sec] 	 temperature [K] 	 photoncount 
0.0	262.889595865	0.0
0.0102	263.590670403	0.0
0.0205	264.297390285	0.0
0.0307	264.996034899	0.0
0.041	265.700305291	1.0
0.0512	266.396528403	2.0
0.0614	267.0915498	0.0
0.0717	267.792167798	1.0
0.0819	268.484780252	1.0
0.0922	269.182969908	3.0
0.1024	269.873181767	4.0
0.1126	270.562202286	1.0
0.1229	271.256771085	2.0
0.1331	271.943403459	0.0
0.1434	272.635564883	0.0
0.1536	273.31981739	2.0
0.1638	274.002888843	1.0
0.1741	274.691460671	0.0
0.1843	275.372164599	4.0
0.1946	276.058349838	3.0
0.2048	276.736694447	0.0
0.215	277.413868199	1.0
0.2253	278.096494836	1.0
0.2355	278.771321504	0.0
0.2458	279.451582157	1.0
0.256	280.124069877	0.0
0.2662	280.795396849	0.0
0.2765	281.472129625	0.0
0.2867	282.141129779	0.0
0.297	282.815517	0.0
0.3072	283.482198399	0.0
0.3174	284.147729074	0.0
0.3277	284.818618877	0.0
0.3379	285.481842823	0.0
0.3482	286.150407323	0.0
0.3584	286.811332535	0.0
0.3686	287.471116957	0.0
0.3789	288.136214237	0.0
0.3891	288.793711846	0.0
0.3994	289.4565039	1.0
0.4096	290.111722623	0.0
0.4198	290.765810407	0.0
0.4301	291.425165176	0.0
0.4403	292.076985892	0.0
0.4506	292.734055338	0.0
0.4608	293.383616844	0.0
0.471	294.032057174	0.0
0.4813	294.685719014	0.0
0.4915	295.33191185	0.0
0.5018	295.9833081	0.0
0.512	296.627261232	0.0
0.5222	297.270102869	0.0
0.5325	297.918120934	0.0
0.5427	298.558734482	0.0
0.553	299.204506517	0.0
0.5632	299.842899699	0.0
0.5734	300.480190983	0.0
0.5837	301.122614001	0.0
0.5939	301.757696434	0.0
0.6042	302.397892814	0.0
0.6144	303.030774052	0.0
0.6246	303.662562905	0.0
0.6349	304.299439184	0.0
0.6451	304.929038258	2.0
0.6554	305.563707124	0.0
0.6656	306.191124008	0.0
0.6758	306.817457938	0.0
0.6861	307.44883537	0.0
0.6963	308.072998427	0.0
0.7066	308.702187505	0.0
0.7168	309.324187214	0.0
0.727	309.945113321	0.0
0.7373	310.571039382	0.0
0.7475	311.189813359	0.0
0.7578	311.813569961	0.0
0.768	312.430199268	0.0
0.7782	313.045764242	0.0
0.7885	313.666286001	0.0
0.7987	314.279717427	0.0
0.809	314.898088458	0.0
0.8192	315.509393732	0.0
0.8294	316.119643862	1.0
0.8397	316.734807979	0.0
0.8499	317.342942983	0.0
0.8602	317.955974942	0.0
0.8704	318.56200215	0.0
0.8806	319.166983325	0.0
0.8909	319.776836059	0.0
0.9011	320.37972037	0.0
0.9114	320.987459356	0.0
0.9216	321.58825407	2.0
0.9318	322.188011782	0.0
0.9421	322.792598993	0.0
0.9523	323.390277945	0.0
0.9626	323.992769657	0.0
0.9728	324.588377055	0.0
0.983	325.182956405	0.0
0.9933	325.782323555	0.0
1.0035	326.374842093	0.0
1.0138	326.972131837	0.0
1.024	327.562596706	1.0
1.0342	328.152042404	0.0
1.0445	328.746234563	0.0
1.0547	329.333637242	0.0
1.065	329.925769932	1.0
1.0752	330.511136674	0.0
1.0854	331.095493044	0.0
1.0957	331.684554894	0.0
1.1059	332.266885885	0.0
1.1162	332.853906047	0.0
1.1264	333.43421868	0.0
1.1366	334.013529663	0.0
1.1469	334.5975055	0.0
1.1571	335.174808592	0.0
1.1674	335.756760369	0.0
1.1776	336.332062529	1.0
1.1878	336.906371689	0.0
1.1981	337.485305425	0.0
1.2083	338.05762403	0.0
1.2186	338.634551183	0.0
1.2288	339.204886132	1.0
1.239	339.774236654	1.0
1.2493	340.348171824	0.0
1.2595	340.915548978	1.0
1.2698	341.487494889	1.0
1.28	342.052905514	1.0
1.2902	342.617340212	0.0
1.3005	343.186319973	0.0
1.3107	343.748798342	0.0
1.321	344.315806019	1.0
1.3312	344.876334838	0.0
1.3414	345.435896156	0.0
1.3517	345.999963294	1.0
1.3619	346.557585173	1.0
1.3722	347.119697254	0.0
1.3824	347.675386416	0.0
1.3926	348.230116431	0.0
1.4029	348.789313362	1.0
1.4131	349.342120683	1.0
1.4234	349.899379438	0.0
1.4336	350.450270729	0.0
1.4438	351.000211154	0.0
1.4541	351.554579928	0.0
1.4643	352.10261426	0.0
1.4746	352.655061592	2.0
1.4848	353.201196438	3.0
1.495	353.746388627	0.0
1.5053	354.295970931	0.0
1.5155	354.839273485	0.0
1.5258	355.386950936	0.0
1.536	355.928370404	1.0
1.5462	356.468855355	2.0
1.5565	357.013692514	2.0
1.5667	357.552304145	0.0
1.577	358.095252899	0.0
1.5872	358.631997702	0.0
1.5974	359.167816057	1.0
1.6077	359.707949043	1.0
1.6179	360.241910251	1.0
1.6282	360.780171137	1.0
1.6384	361.312281637	1.0
1.6486	361.843473687	3.0
1.6589	362.378943115	2.0
1.6691	362.908294054	2.0
1.6794	363.441907547	1.0
1.6896	363.969423756	3.0
1.6998	364.496029445	4.0
1.7101	365.026875582	2.0
1.7203	365.551656057	1.0
1.7306	366.080662282	1.0
1.7408	366.603623868	0.0
1.751	367.125682796	4.0
1.7613	367.651945559	1.0
1.7715	368.172195032	5.0
1.7818	368.696633769	1.0
1.792	369.215080057	3.0
1.8022	369.732631481	1.0
1.8125	370.254350444	4.0
1.8227	370.770108035	1.0
1.833	371.29001872	2.0
1.8432	371.803988696	0.0
1.8534	372.317071534	3.0
1.8637	372.834285927	4.0
1.8739	373.345590421	3.0
1.8842	373.86101215	1.0
1.8944	374.370544462	7.0
1.9046	374.879197296	4.0
1.9149	375.391946014	2.0
1.9251	375.898835857	5.0
1.9354	376.409807388	4.0
1.9456	376.914940352	4.0
1.9558	377.419201431	6.0
1.9661	377.92752303	6.0
1.9763	378.430036341	5.0
1.9866	378.936596097	5.0
1.9968	379.437367697	7.0
2.007	379.93727494	6.0
2.0173	380.441207644	5.0
2.0275	380.939382209	9.0
2.0378	381.441568283	5.0
2.048	381.938016175	4.0
2.0582	382.433607173	5.0
2.0685	382.933188876	5.0
2.0787	383.427062157	10.0
2.089	383.92491231	3.0
2.0992	384.417073826	8.0
2.1094	384.908385847	9.0
2.1197	385.403654116	6.0
2.1299	385.89326325	9.0
2.1402	386.38681492	12.0
2.1504	386.874727069	14.0
2.1606	387.361797057	7.0
2.1709	387.852789134	16.0
2.1811	388.338170938	14.0
2.1914	388.827461238	10.0
2.2016	389.311160709	7.0
2.2118	389.794025291	17.0
2.2221	390.280778098	12.0
2.2323	390.761969072	15.0
2.2426	391.247034794	20.0
2.2528	391.72655796	15.0
2.263	392.205253445	14.0
2.2733	392.687803585	24.0
2.2835	393.164839911	13.0
2.2938	393.645717532	15.0
2.304	394.121100452	27.0
2.3142	394.595662836	21.0
2.3245	395.074046594	24.0
2.3347	395.546964145	21.0
2.345	396.023689826	19.0
2.3552	396.494968245	22.0
2.3654	396.965433215	23.0
2.3757	397.439686564	25.0
2.3859	397.908520903	26.0
2.3962	398.38113049	30.0
2.4064	398.848339849	32.0
2.4166	399.314742781	18.0
2.4269	399.784901384	31.0
2.4371	400.249687764	34.0
2.4474	400.718216797	37.0
2.4576	401.181392228	26.0
2.4678	401.643768195	39.0
2.4781	402.109867405	21.0
2.4883	402.570640777	45.0
2.4986	403.035124488	36.0
2.5088	403.494300821	21.0
2.519	403.952684591	28.0
2.5293	404.414759459	32.0
2.5395	404.871554472	33.0
2.5498	405.332027788	35.0
2.56	405.78723955	38.0
2.5702	406.241665594	24.0
2.5805	406.699750865	32.0
2.5907	407.152601868	35.0
2.601	407.609099416	35.0
2.6112	408.060380838	33.0
2.6214	408.510883326	20.0
2.6317	408.965013447	33.0
2.6419	409.413954494	29.0
2.6522	409.8665106	25.0
2.6624	410.313895617	26.0
2.6726	410.760508426	38.0
2.6829	411.210717546	33.0
2.6931	411.655782395	21.0
2.7034	412.104431091	27.0
2.7136	412.547953345	30.0
2.7238	412.990710058	36.0
2.7341	413.437032032	30.0
2.7443	413.87825415	33.0
2.7546	414.323029172	35.0
2.7648	414.762722015	28.0
2.775	415.201655927	26.0
2.7853	415.644124316	24.0
2.7955	416.081536882	26.0
2.8058	416.522471677	22.0
2.816	416.958368172	15.0
2.8262	417.393512287	21.0
2.8365	417.832160364	30.0
2.8467	418.265796271	22.0
2.857	418.702923994	22.0
2.8672	419.135056919	18.0
2.8774	419.566443961	16.0
2.8877	420.001304711	17.0
2.8979	420.431196566	23.0
2.9082	420.864550088	15.0
2.9184	421.292951938	19.0
2.9286	421.720614345	22.0
2.9389	422.151720468	25.0
2.9491	422.577900597	12.0
2.9594	423.007512506	22.0
2.9696	423.432215495	30.0
2.9798	423.856185426	30.0
2.9901	424.283569339	22.0
3.0003	424.706069791	22.0
3.0106	425.131972391	25.0
3.0208	425.553008456	23.0
3.031	425.973317792	23.0
3.0413	426.397011634	21.0
3.0515	426.815864178	24.0
3.0618	427.238089497	28.0
3.072	427.655490298	19.0
3.0822	428.072170645	23.0
3.0925	428.492206275	20.0
3.1027	428.907442408	30.0
3.113	429.326022195	24.0
3.1232	429.739819121	24.0
3.1334	430.152901812	33.0
3.1437	430.569310816	23.0
3.1539	430.980961762	30.0
3.1642	431.395927494	33.0
3.1744	431.806151658	37.0
3.1846	432.215667756	24.0
3.1949	432.628481447	33.0
3.2051	433.036578162	38.0
3.2154	433.447961041	33.0
3.2256	433.854643293	30.0
3.2358	434.260623591	31.0
3.2461	434.669873011	42.0
3.2563	435.074446182	33.0
3.2666	435.482277144	31.0
3.2768	435.885448065	30.0
3.287	436.287923092	48.0
3.2973	436.693639016	31.0
3.3075	437.094719065	37.0
3.3178	437.499028777	33.0
3.328	437.898718683	38.0
3.3382	438.297718705	39.0
3.3485	438.69993164	43.0
3.3587	439.097548728	39.0
3.369	439.498367593	40.0
3.3792	439.89460654	34.0
3.3894	440.290161559	38.0
3.3997	440.688901751	41.0
3.4099	441.083085777	40.0
3.4202	441.480443936	38.0
3.4304	441.87326172	35.0
3.4406	442.265401481	42.0
3.4509	442.660698914	33.0
3.4611	443.051479519	33.0
3.4714	443.445406852	40.0
3.4816	443.834833011	43.0
3.4918	444.223587002	37.0
3.5021	444.615471401	35.0
3.5123	445.00287797	39.0
3.5226	445.393404098	37.0
3.5328	445.779467917	45.0
3.543	446.16486537	54.0
3.5533	446.553366204	39.0
3.5635	446.93742787	28.0
3.5738	447.32458216	38.0
3.584	447.707312669	38.0
3.5942	448.089382565	30.0
3.6045	448.474529047	33.0
3.6147	448.85527469	29.0
3.625	449.239086255	31.0
3.6352	449.618512233	34.0
3.6454	449.997283304	33.0
3.6557	450.379104396	28.0
3.6659	450.756562646	30.0
3.6762	451.137060347	31.0
3.6864	451.513210327	26.0
3.6966	451.888711053	29.0
3.7069	452.267235468	30.0
3.7171	452.641434709	25.0
3.7274	453.018647158	33.0
3.7376	453.391549425	30.0
3.7478	453.763808044	34.0
3.7581	454.139064244	28.0
3.7683	454.510032615	24.0
3.7786	454.883988178	31.0
3.7888	455.253670772	33.0
3.799	455.622715277	33.0
3.8093	455.994731481	27.0
3.8195	456.362496877	40.0
3.8298	456.733223673	31.0
3.84	457.099714395	37.0
3.8502	457.465572535	23.0
3.8605	457.834376718	29.0
3.8707	458.198966794	30.0
3.881	458.566492701	38.0
3.8912	458.929819109	25.0
3.9014	459.292518397	29.0
3.9117	459.65813829	22.0
3.9219	460.019580463	33.0
3.9322	460.383933118	27.0
3.9424	460.744122532	34.0
3.9526	461.103690242	28.0
3.9629	461.46615334	26.0
3.9731	461.824474788	32.0
3.9834	462.185681589	32.0
3.9936	462.542761095	34.0
4.0038	462.899224264	27.0
4.0141	463.258557823	33.0
4.0243	463.613785491	34.0
4.0346	463.971873599	28.0
4.0448	464.325870049	25.0
4.055	464.679255482	27.0
4.0653	465.035486522	19.0
4.0755	465.387647122	32.0
4.0858	465.742643466	25.0
4.096	466.093583478	31.0
4.1062	466.443917749	28.0
4.1165	466.797073058	38.0
4.1267	467.146193071	33.0
4.137	467.498124344	34.0
4.1472	467.846034308	22.0
4.1574	468.193343762	38.0
4.1677	468.543449895	32.0
4.1779	468.889555575	19.0
4.1882	469.238448241	31.0
4.1984	469.583354319	22.0
4.2086	469.927665071	33.0
4.2189	470.274748356	33.0
4.2291	470.617865728	32.0
4.2394	470.963746023	23.0
4.2496	471.30567415	36.0
4.2598	471.647012092	18.0
4.2701	471.991098629	34.0
4.2803	472.331253494	28.0
4.2906	472.674147427	19.0
4.3008	473.013123316	25.0
4.311	473.351514115	28.0
4.3213	473.692629777	23.0
4.3315	474.029847714	25.0
4.3418	474.36978107	29.0
4.352	474.70583021	27.0
4.3622	475.041299312	28.0
4.3725	475.379469751	24.0
4.3827	475.713776117	26.0
4.393	476.050774458	32.0
4.4032	476.383922119	26.0
4.4134	476.71649475	18.0
4.4237	477.051745395	24.0
4.4339	477.38316533	22.0
4.4442	477.717253996	18.0
4.4544	478.04752523	19.0
4.4646	478.377226399	27.0
4.4749	478.709582459	28.0
4.4851	479.038140884	19.0
4.4954	479.369344998	25.0
4.5056	479.69676464	25.0
4.5158	480.023619139	26.0
4.5261	480.353105606	28.0
4.5363	480.678827228	20.0
4.5466	481.007171696	25.0
4.5568	481.331764367	33.0
4.567	481.655796775	31.0
4.5773	481.982438426	28.0
4.5875	482.305347738	19.0
4.5978	482.630857249	27.0
4.608	482.952647358	27.0
4.6182	483.27388204	25.0
4.6285	483.597703438	33.0
4.6387	483.917824721	22.0
4.649	484.240523754	34.0
4.6592	484.559535498	21.0
4.6694	484.877996611	15.0
4.6797	485.199022105	29.0
4.6899	485.516379432	22.0
4.7002	485.836292252	25.0
4.7104	486.152549619	20.0
4.7206	486.46826111	22.0
4.7309	486.786514841	21.0
4.7411	487.101132076	17.0
4.7514	487.41828274	23.0
4.7616	487.731809512	26.0
4.7718	488.044795121	23.0
4.7821	488.36030102	22.0
4.7923	488.672201821	26.0
4.8026	488.986614177	30.0
4.8128	489.297433931	20.0
4.823	489.607717194	18.0
4.8333	489.920498986	16.0
4.8435	490.229706808	25.0
4.8538	490.541404499	19.0
4.864	490.849540606	30.0
4.8742	491.157144855	23.0
4.8845	491.467226061	24.0
4.8947	491.773764154	24.0
4.905	492.082770619	21.0
4.9152	492.388246251	21.0
4.9254	492.693194617	23.0
4.9357	493.000598554	22.0
4.9459	493.304489969	26.0
4.9562	493.610828444	16.0
4.9664	493.913666572	24.0
4.9766	494.215981986	20.0
4.9869	494.52073177	18.0
4.9971	494.821999359	15.0
5.0074	495.125692879	21.0
5.0176	495.425916275	20.0
5.0278	495.725621471	18.0
5.0381	496.027740017	21.0
5.0483	496.326406434	24.0
5.0586	496.627477837	28.0
5.0688	496.925109077	18.0
5.079	497.22222659	15.0
5.0893	497.521736617	23.0
5.0995	497.817824322	13.0
5.1098	498.116296247	27.0
5.12	498.411357712	22.0
5.1302	498.705909885	27.0
5.1405	499.002833915	19.0
5.1507	499.296365172	16.0
5.161	499.592260063	23.0
5.1712	499.88477394	25.0
5.1814	500.176782924	20.0
5.1917	500.471143285	15.0
5.2019	500.762140165	26.0
5.2122	501.055480274	13.0
5.2224	501.345468559	25.0
5.2326	501.634956311	25.0
5.2429	501.926775138	16.0
5.2531	502.215259525	22.0
5.2634	502.506066908	19.0
5.2736	502.793551408	24.0
5.2838	503.080539696	21.0
5.2941	503.369838933	19.0
5.3043	503.655832519	28.0
5.3146	503.944129045	20.0
5.3248	504.229131378	18.0
5.335	504.513641783	20.0
5.3453	504.800443184	25.0
5.3555	505.083967476	18.0
5.3658	505.369774823	15.0
5.376	505.65231642	27.0
5.3862	505.934370336	20.0
5.3965	506.218695467	24.0
5.4067	506.499771785	11.0
5.417	506.783111446	13.0
5.4272	507.063213553	18.0
5.4374	507.34283219	20.0
5.4477	507.624702432	17.0
5.4579	507.903351911	16.0
5.4682	508.184245191	10.0
5.4784	508.461928871	21.0
5.4886	508.739133256	18.0
5.4989	509.018569805	20.0
5.5091	509.294813399	16.0
5.5194	509.573281421	20.0
5.5296	509.848567555	15.0
5.5398	510.123378531	9.0
5.5501	510.400402399	20.0
5.5603	510.674260881	12.0
5.5706	510.950324585	15.0
5.5808	511.223233874	14.0
5.591	511.495672107	19.0
5.6013	511.770304126	9.0
5.6115	512.041798089	14.0
5.6218	512.315478234	16.0
5.632	512.586031199	18.0
5.6422	512.856117175	15.0
5.6525	513.128377997	6.0
5.6627	513.397527856	12.0
5.673	513.668845021	7.0
5.6832	513.937062007	15.0
5.6934	514.204816037	4.0
5.7037	514.474726134	10.0
5.7139	514.741552129	10.0
5.7242	515.010526717	15.0
5.7344	515.276427893	8.0
5.7446	515.541870111	12.0
5.7549	515.809449779	7.0
5.7651	516.073971974	8.0
5.7754	516.340624211	9.0
5.7856	516.604229572	8.0
5.7958	516.867379938	9.0
5.8061	517.132649299	7.0
5.8163	517.394887585	6.0
5.8266	517.659237523	4.0
5.8368	517.920566891	6.0
5.847	518.181445192	8.0
5.8573	518.444424193	5.0
5.8675	518.70439829	4.0
5.8778	518.966465807	5.0
5.888	519.225538834	5.0
5.8982	519.484164688	3.0
5.9085	519.744873104	4.0
5.9187	520.002602561	8.0
5.929	520.262407363	3.0
5.9392	520.51924353	8.0
5.9494	520.775636385	4.0
5.9597	521.034093821	4.0
5.9699	521.289598019	7.0
5.9802	521.547159642	3.0
5.9904	521.801778262	6.0
6.0006	522.055957398	5.0
6.0109	522.312183289	6.0
6.0211	522.56548144	3.0
6.0314	522.820819253	4.0
6.0416	523.073239473	6.0
6.0518	523.325224003	1.0
6.0621	523.579237616	1.0
6.0723	523.830348768	6.0
6.0826	524.083481971	7.0
6.0928	524.333722772	0.0
6.103	524.583531644	3.0
6.1133	524.835352081	1.0
6.1235	525.084295117	2.0
6.1338	525.335242744	5.0
6.144	525.583322943	2.0
6.1542	525.830974943	4.0
6.1645	526.08062114	0.0
6.1747	526.327414778	5.0
6.185	526.576195701	5.0
6.1952	526.822133953	2.0
6.2054	527.067647703	3.0
6.2157	527.315138432	2.0
6.2259	527.559801232	4.0
6.2362	527.806434158	5.0
6.2464	528.050248956	3.0
6.2566	528.293642918	2.0
6.2669	528.538996789	1.0
6.2771	528.781547148	0.0
6.2874	529.026050623	4.0
6.2976	529.267760303	1.0
6.3078	529.509052779	0.0
6.3181	529.752288243	1.0
6.3283	529.9927444	1.0
6.3386	530.235136809	1.0
6.3488	530.474759545	2.0
6.359	530.713968681	1.0
6.3693	530.955104027	0.0
6.3795	531.193484064	3.0
6.3898	531.433783635	0.0
6.4	531.671337447	3.0
6.4102	531.908481229	2.0
6.4205	532.147534591	1.0
6.4307	532.383856432	2.0
6.441	532.622081236	1.0
6.4512	532.857583986	1.0
6.4614	533.092680247	3.0
6.4717	533.3296696	4.0
6.4819	533.563951018	2.0
6.4922	533.800118967	1.0
6.5024	534.033588365	0.0
6.5126	534.266654783	2.0
6.5229	534.501597949	1.0
6.5331	534.733856559	2.0
6.5434	534.967985412	1.0
6.5536	535.199439015	1.0
6.5638	535.430493116	0.0
6.5741	535.663407762	1.0
6.5843	535.89366103	1.0
6.5946	536.125768393	0.0
6.6048	536.355223604	2.0
6.615	536.584282764	1.0
6.6253	536.815186403	2.0
6.6355	537.043451643	2.0
6.6458	537.273554971	3.0
6.656	537.501029044	0.0
6.6662	537.728110486	2.0
6.6765	537.957020482	1.0
6.6867	538.18331486	1.0
6.697	538.411431454	3.0
6.7072	538.636941496	1.0
6.7174	538.862062296	1.0
6.7277	539.088995862	1.0
6.7379	539.313336394	2.0
6.7482	539.539483409	1.0
6.7584	539.763046376	0.0
6.7686	539.986223463	0.0
6.7789	540.211197664	2.0
6.7891	540.433601219	0.0
6.7994	540.65779566	2.0
6.8096	540.879428365	1.0
6.8198	541.10067852	2.0
6.8301	541.323710274	1.0
6.8403	541.544193576	0.0
6.8506	541.766452302	0.0
6.8608	541.986171409	0.0
6.871	542.205511271	3.0
6.8813	542.426617348	0.0
6.8915	542.645196978	0.0
6.9018	542.865536701	1.0
6.912	543.083358734	1.0
6.9222	543.300804795	1.0
6.9325	543.520001822	1.0
6.9427	543.736694216	2.0
6.953	543.955131506	0.0
6.9632	544.171072844	1.0
6.9734	544.386641456	2.0
6.9837	544.603945916	0.0
6.9939	544.818767367	2.0
7.0042	545.03531865	1.0
7.0144	545.249395531	0.0
7.0246	545.463102904	0.0
7.0349	545.678531137	0.0
7.0451	545.891497801	1.0
7.0554	546.10617936	2.0
7.0656	546.318407882	1.0
7.0758	546.530270086	0.0
7.0861	546.743838292	0.0
7.0963	546.954966182	1.0
7.1066	547.167794162	0.0
7.1168	547.378190283	1.0
7.127	547.588223249	3.0
7.1373	547.799947488	2.0
7.1475	548.009252481	0.0
7.1578	548.220242884	0.0
7.168	548.428822426	1.0
7.1782	548.637041949	0.0
7.1885	548.846938142	2.0
7.1987	549.054435976	1.0
7.209	549.263604669	1.0
7.2192	549.470383316	2.0
7.2294	549.676805052	3.0
7.2397	549.884888983	0.0
7.2499	550.090595262	1.0
7.2602	550.297957973	2.0
7.2704	550.502951274	0.0
7.2806	550.707590747	2.0
7.2909	550.913878062	2.0
7.3011	551.117808254	0.0
7.3114	551.323380577	1.0
7.3216	551.526603947	1.0
7.3318	551.729476544	1.0
7.3421	551.933982755	1.0
7.3523	552.136152196	1.0
7.3626	552.339949588	1.0
7.3728	552.54141831	1.0
7.383	552.742539286	1.0
7.3933	552.945279772	0.0
7.4035	553.145703663	2.0
7.4138	553.347741451	3.0
7.424	553.547470673	1.0
7.4342	553.746855152	1.0
7.4445	553.947845159	1.0
7.4547	554.146538572	1.0
7.465	554.346831947	0.0
7.4752	554.544836688	0.0
7.4854	554.742499664	2.0
7.4957	554.941754304	1.0
7.5059	555.13873218	0.0
7.5162	555.337296204	0.0
7.5264	555.533591355	0.0
7.5366	555.729547691	0.0
7.5469	555.927081948	0.0
7.5571	556.122359099	0.0
7.5674	556.319208703	0.0
7.5776	556.513809024	0.0
7.5878	556.708073455	2.0
7.5981	556.903902183	0.0
7.6083	557.097493294	0.0
7.6186	557.29264328	2.0
7.6288	557.485563404	1.0
7.639	557.678150538	0.0
7.6493	557.872288464	0.0
7.6595	558.064208091	1.0
7.6698	558.257673135	0.0
7.68	558.448927569	0.0
7.6902	558.639851888	0.0
7.7005	558.832313609	2.0
7.7107	559.022576185	0.0
7.721	559.214370834	0.0
7.7312	559.40397396	1.0
7.7414	559.593249821	1.0
7.7517	559.78404981	0.0
7.7619	559.972669642	2.0
7.7722	560.162808318	0.0
7.7824	560.350774394	2.0
7.7926	560.53841603	0.0
7.8029	560.727568635	1.0
7.8131	560.914559905	1.0
7.8234	561.103056907	1.0
7.8336	561.289400066	0.0
7.8438	561.475421587	2.0
7.8541	561.662941031	1.0
7.8643	561.848317802	1.0
7.8746	562.035187304	0.0
7.8848	562.219921559	1.0
7.895	562.404336954	0.0
7.9053	562.590237338	0.0
7.9155	562.774013549	1.0
7.9258	562.959269602	1.0
7.936	563.142408845	2.0
7.9462	563.32523198	1.0
7.9565	563.509527283	0.0
7.9667	563.691716754	1.0
7.977	563.87537329	7.0
7.9872	564.056931292	0.0
7.9974	564.238175916	0.0
8.0077	564.420879996	1.0
8.0179	564.601496426	2.0
8.0282	564.783567255	0.0
8.0384	564.963557669	1.0
8.0486	565.14323741	1.0
