TL-DOS Lehrstuhlversuch
detector=R1407303
job_number=2015-10-26-009
irradiation_dose [mSv]=10.0

[BEGIN DATA]
time [sec] 	 temperature [K] 	 photoncount 
0.0	64.8675323747	0.0
0.0102	67.4312716664	0.0
0.0205	70.0060871006	0.0
0.0307	72.5420577407	0.0
0.041	75.088984554	0.0
0.0512	77.5974873133	1.0
0.0614	80.0924341715	3.0
0.0717	82.5981599676	2.0
0.0819	85.0660832862	2.0
0.0922	87.5446687927	5.0
0.1024	89.985861272	1.0
0.1126	92.4138615938	3.0
0.1229	94.8523516238	1.0
0.1331	97.2540535245	2.0
0.1434	99.6661315163	2.0
0.1536	102.041819842	0.0
0.1638	104.404669994	1.0
0.1741	106.777728385	2.0
0.1843	109.114985778	1.0
0.1946	111.462340841	0.0
0.2048	113.774282677	3.0
0.215	116.073730823	1.0
0.2253	118.383113293	2.0
0.2355	120.657655407	2.0
0.2458	122.942024242	1.0
0.256	125.191930088	1.0
0.2662	127.429677486	1.0
0.2765	129.67709264	1.0
0.2867	131.890602305	1.0
0.297	134.113675013	1.0
0.3072	136.303209471	0.0
0.3174	138.480911727	0.0
0.3277	140.668022327	0.0
0.3379	142.822137217	0.0
0.3482	144.985558547	0.0
0.3584	147.116341554	0.0
0.3686	149.235609851	0.0
0.3789	151.364034038	0.0
0.3891	153.460347886	1.0
0.3994	155.565718454	0.0
0.4096	157.639326479	0.0
0.4198	159.701728765	0.0
0.4301	161.773041265	0.0
0.4403	163.813105036	0.0
0.4506	165.86198251	0.0
0.4608	167.87994972	0.0
0.471	169.887011874	0.0
0.4813	171.902745154	0.0
0.4915	173.888068199	0.0
0.5018	175.88196845	0.0
0.512	177.845787847	0.0
0.5222	179.798994803	1.0
0.5325	181.760640213	0.0
0.5427	183.69269138	0.0
0.553	185.633089603	1.0
0.5632	187.544214128	1.0
0.5734	189.445010973	0.0
0.5837	191.354019845	0.0
0.5939	193.234228572	2.0
0.6042	195.122560379	0.0
0.6144	196.982403985	1.0
0.6246	198.832197032	0.0
0.6349	200.689981754	0.0
0.6451	202.519739121	0.0
0.6554	204.357401603	0.0
0.6656	206.167340303	1.0
0.6758	207.96749813	1.0
0.6861	209.775433191	0.0
0.6963	211.556092952	0.0
0.7066	213.344445711	0.0
0.7168	215.105818597	1.0
0.727	216.857673057	0.0
0.7373	218.617096067	0.0
0.7475	220.349975651	0.0
0.7578	222.090341807	0.0
0.768	223.804452037	0.0
0.7782	225.509299248	0.0
0.7885	227.221511923	1.0
0.7987	228.907893408	0.0
0.809	230.601560579	2.0
0.8192	232.269676345	1.0
0.8294	233.928777645	1.0
0.8397	235.595046774	0.0
0.8499	237.236177836	1.0
0.8602	238.884399089	1.0
0.8704	240.507754553	0.0
0.8806	242.122337436	0.0
0.8909	243.743895814	0.0
0.9011	245.340990651	0.0
0.9114	246.944985429	0.0
0.9216	248.52478164	1.0
0.9318	250.096040661	0.0
0.9421	251.674088005	1.0
0.9523	253.228328235	1.0
0.9626	254.789283261	0.0
0.9728	256.326689035	0.0
0.983	257.855786698	0.0
0.9933	259.391490533	1.0
1.0035	260.904026067	0.0
1.0138	262.42309622	2.0
1.024	263.919249014	1.0
1.0342	265.407316628	0.0
1.0445	266.901813151	0.0
1.0547	268.373763045	3.0
1.065	269.852072216	2.0
1.0752	271.308078966	0.0
1.0854	272.756217483	1.0
1.0957	274.210612405	6.0
1.1059	275.643065687	2.0
1.1162	277.081707608	2.0
1.1264	278.498645546	2.0
1.1366	279.907926379	2.0
1.1469	281.323295739	2.0
1.1571	282.717312216	2.0
1.1674	284.117351273	2.0
1.1776	285.496268728	1.0
1.1878	286.867734539	2.0
1.1981	288.245125504	8.0
1.2083	289.601736545	3.0
1.2186	290.964208563	0.0
1.2288	292.306125731	2.0
1.239	293.640791205	6.0
1.2493	294.981222844	2.0
1.2595	296.301432144	5.0
1.2698	297.627345154	0.0
1.28	298.933254859	3.0
1.2902	300.232107453	3.0
1.3005	301.53657149	5.0
1.3107	302.821355811	4.0
1.321	304.111690795	8.0
1.3312	305.38255922	5.0
1.3414	306.646559897	11.0
1.3517	307.916021445	4.0
1.3619	309.16633134	5.0
1.3722	310.422042958	9.0
1.3824	311.658810361	11.0
1.3926	312.888894296	10.0
1.4029	314.124292572	14.0
1.4131	315.341053088	15.0
1.4234	316.563070384	19.0
1.4336	317.766651792	14.0
1.4438	318.963729068	17.0
1.4541	320.165978087	26.0
1.4643	321.35008945	20.0
1.4746	322.539316538	19.0
1.4848	323.710602425	24.0
1.495	324.875558706	20.0
1.5053	326.045547956	31.0
1.5155	327.197886236	25.0
1.5258	328.355202972	26.0
1.536	329.49505992	27.0
1.5462	330.628757102	27.0
1.5565	331.767352206	33.0
1.5667	332.888769965	33.0
1.577	334.015032593	33.0
1.5872	335.12430393	37.0
1.5974	336.227580785	53.0
1.6077	337.335624136	42.0
1.6179	338.42695106	54.0
1.6282	339.522992851	60.0
1.6384	340.602499276	62.0
1.6486	341.676172068	52.0
1.6589	342.754483458	49.0
1.6691	343.816526969	89.0
1.6794	344.883158834	84.0
1.6896	345.933699024	84.0
1.6998	346.978562115	86.0
1.7101	348.027939336	109.0
1.7203	349.061485192	112.0
1.7306	350.099496284	118.0
1.7408	351.121847486	118.0
1.751	352.138673922	145.0
1.7613	353.15989336	130.0
1.7715	354.165706235	155.0
1.7818	355.17586453	161.0
1.792	356.170783135	178.0
1.8022	357.160325219	210.0
1.8125	358.154142429	204.0
1.8227	359.132966476	221.0
1.833	360.116019345	186.0
1.8432	361.084241448	218.0
1.8534	362.047231296	226.0
1.8637	363.014381557	254.0
1.8739	363.966940966	304.0
1.8842	364.923615724	347.0
1.8944	365.865857667	304.0
1.9046	366.803007753	358.0
1.9149	367.744206616	371.0
1.9251	368.67120614	387.0
1.9354	369.602210587	463.0
1.9456	370.519169493	461.0
1.9558	371.43117317	513.0
1.9661	372.347116984	543.0
1.9763	373.249242469	550.0
1.9866	374.155265412	601.0
1.9968	375.047619697	577.0
2.007	375.935151716	698.0
2.0173	376.826518146	658.0
2.0275	377.704437032	717.0
2.0378	378.586148798	770.0
2.048	379.454558673	814.0
2.0582	380.318275678	834.0
2.0685	381.185724206	880.0
2.0787	382.040086026	940.0
2.089	382.898138951	964.0
2.0992	383.743246914	1030.0
2.1094	384.583787929	1127.0
2.1197	385.427960341	1185.0
2.1299	386.259397197	1200.0
2.1402	387.094426116	1267.0
2.1504	387.916857423	1280.0
2.1606	388.734844327	1345.0
2.1709	389.556365186	1383.0
2.1811	390.365492222	1444.0
2.1914	391.178114935	1488.0
2.2016	391.978478065	1557.0
2.2118	392.774516049	1689.0
2.2221	393.573993161	1680.0
2.2323	394.361409012	1741.0
2.2426	395.152226741	1750.0
2.2528	395.931113847	1797.0
2.263	396.705791862	1786.0
2.2733	397.483816725	1820.0
2.2835	398.250103964	1858.0
2.2938	399.019701799	1929.0
2.304	399.777689143	1923.0
2.3142	400.531580339	1900.0
2.3245	401.288728577	1988.0
2.3347	402.034454144	2023.0
2.345	402.783401476	1990.0
2.3552	403.521049859	2035.0
2.3654	404.254712005	1940.0
2.3757	404.991543797	1983.0
2.3859	405.717259422	1953.0
2.3962	406.446110361	1945.0
2.4064	407.163965536	1892.0
2.4166	407.877941435	1989.0
2.4269	408.595001929	1920.0
2.4371	409.301244535	1862.0
2.4474	410.010538326	1837.0
2.4576	410.7091314	1818.0
2.4678	411.403949291	1753.0
2.4781	412.101769008	1651.0
2.4883	412.789061111	1602.0
2.4986	413.479322528	1542.0
2.5088	414.159170358	1494.0
2.519	414.835344304	1397.0
2.5293	415.514439529	1402.0
2.5395	416.183289626	1354.0
2.5498	416.855029361	1345.0
2.56	417.516634936	1254.0
2.5702	418.174665207	1215.0
2.5805	418.835538372	1135.0
2.5907	419.486441314	1066.0
2.601	420.140156357	1120.0
2.6112	420.784009169	1077.0
2.6214	421.424382612	1101.0
2.6317	422.067522665	1075.0
2.6419	422.700960026	1022.0
2.6522	423.337134031	1066.0
2.6624	423.963710436	978.0
2.6726	424.586900834	1028.0
2.6829	425.212783607	1017.0
2.6931	425.829224037	1077.0
2.7034	426.44832768	1027.0
2.7136	427.058091254	1085.0
2.7238	427.664559677	1042.0
2.7341	428.273648231	1097.0
2.7443	428.873547808	1190.0
2.7546	429.476039135	1187.0
2.7648	430.069441014	1194.0
2.775	430.659636161	1211.0
2.7853	431.252381132	1253.0
2.7955	431.836183693	1279.0
2.8058	432.42250846	1321.0
2.816	432.999987675	1379.0
2.8262	433.574346204	1337.0
2.8365	434.151186138	1470.0
2.8467	434.719323612	1458.0
2.857	435.289915614	1509.0
2.8672	435.851899416	1521.0
2.8774	436.410846268	1489.0
2.8877	436.972207942	1550.0
2.8979	437.525100668	1612.0
2.9082	438.08038206	1671.0
2.9184	438.627286234	1637.0
2.9286	439.171234949	1709.0
2.9389	439.717533689	1738.0
2.9491	440.255590727	1828.0
2.9594	440.795972337	1860.0
2.9696	441.328201513	1876.0
2.9798	441.857554533	1848.0
2.9901	442.38919452	1867.0
3.0003	442.912813954	1843.0
3.0106	443.438695585	1934.0
3.0208	443.956643535	1912.0
3.031	444.471792505	1916.0
3.0413	444.989167076	1946.0
3.0515	445.498736308	1984.0
3.0618	446.010507035	1989.0
3.072	446.514556965	1936.0
3.0822	447.015883019	1979.0
3.0925	447.519374956	1982.0
3.1027	448.015270992	2020.0
3.113	448.513309453	1968.0
3.1232	449.003834286	1906.0
3.1334	449.491708333	1944.0
3.1437	449.981690146	1945.0
3.1539	450.464279878	1955.0
3.1642	450.948954546	1944.0
3.1744	451.4263172	1927.0
3.1846	451.901100196	1920.0
3.1949	452.3779344	1933.0
3.2051	452.847574874	1880.0
3.2154	453.319244339	1917.0
3.2256	453.783797992	1871.0
3.2358	454.245841207	1920.0
3.2461	454.709880589	1802.0
3.2563	455.166919271	1811.0
3.2666	455.6259325	1789.0
3.2768	456.078020854	1787.0
3.287	456.527666132	1769.0
3.2973	456.979254015	1727.0
3.3075	457.424029046	1738.0
3.3178	457.870725642	1710.0
3.328	458.310683177	1687.0
3.3382	458.74826319	1687.0
3.3485	459.187733683	1649.0
3.3587	459.620574132	1725.0
3.369	460.055284584	1690.0
3.3792	460.483436805	1650.0
3.3894	460.909275299	1607.0
3.3997	461.336953546	1592.0
3.4099	461.758179651	1614.0
3.4202	462.181225583	1589.0
3.4304	462.597889259	1542.0
3.4406	463.012301292	1612.0
3.4509	463.428503713	1504.0
3.4611	463.838427121	1570.0
3.4714	464.250121525	1573.0
3.4816	464.655604926	1623.0
3.4918	465.058897103	1594.0
3.5021	465.463931626	1537.0
3.5123	465.862855621	1560.0
3.5226	466.26350309	1637.0
3.5328	466.658106216	1586.0
3.543	467.050576914	1503.0
3.5533	467.444743207	1518.0
3.5635	467.832962934	1555.0
3.5738	468.222859889	1611.0
3.584	468.606874688	1578.0
3.5942	468.988814279	1544.0
3.6045	469.372403966	1562.0
3.6147	469.750206651	1563.0
3.625	470.129641559	1600.0
3.6352	470.503352147	1592.0
3.6454	470.875043209	1654.0
3.6557	471.248340092	1602.0
3.6659	471.616005253	1533.0
3.6762	471.985258842	1633.0
3.6864	472.348941709	1589.0
3.6966	472.710659241	1531.0
3.7069	473.073939503	1594.0
3.7171	473.431739161	1645.0
3.7274	473.791084623	1582.0
3.7376	474.145008842	1532.0
3.7478	474.497020461	1563.0
3.7581	474.850552879	1509.0
3.7683	475.198751752	1504.0
3.7786	475.548454951	1565.0
3.7888	475.892882374	1541.0
3.799	476.235448518	1496.0
3.8093	476.579494653	1463.0
3.8195	476.918350357	1524.0
3.8298	477.258670023	1525.0
3.84	477.593855476	1599.0
3.8502	477.927229594	1561.0
3.8605	478.262043991	1478.0
3.8707	478.591807231	1534.0
3.881	478.922995149	1574.0
3.8912	479.249186621	1475.0
3.9014	479.573615361	1460.0
3.9117	479.899445733	1440.0
3.9219	480.220360485	1502.0
3.9322	480.542661688	1505.0
3.9424	480.860100513	1435.0
3.9526	481.175823905	1446.0
3.9629	481.492911319	1402.0
3.9731	481.805215014	1431.0
3.9834	482.118867956	1461.0
3.9936	482.427788993	1455.0
4.0038	482.735040626	1429.0
4.0141	483.043619681	1399.0
4.0243	483.347543377	1424.0
4.0346	483.652780117	1339.0
4.0448	483.953411922	1281.0
4.055	484.252419118	1381.0
4.0653	484.552718117	1351.0
4.0755	484.848486674	1364.0
4.0858	485.145533042	1385.0
4.096	485.438098039	1389.0
4.1062	485.72908202	1378.0
4.1165	486.021323141	1381.0
4.1267	486.309155384	1325.0
4.137	486.598231151	1397.0
4.1472	486.882945795	1288.0
4.1574	487.166121846	1357.0
4.1677	487.450521304	1353.0
4.1779	487.730630188	1417.0
4.1882	488.011949229	1386.0
4.1984	488.289024167	1334.0
4.2086	488.564601797	1287.0
4.2189	488.841370007	1281.0
4.2291	489.113962771	1256.0
4.2394	489.38773322	1326.0
4.2496	489.657373447	1274.0
4.2598	489.925556544	1322.0
4.2701	490.194898275	1280.0
4.2803	490.460176598	1251.0
4.2906	490.726601005	1255.0
4.3008	490.989006016	1225.0
4.311	491.249992996	1186.0
4.3213	491.51210752	1241.0
4.3315	491.77026767	1205.0
4.3418	492.02954315	1261.0
4.352	492.284907087	1242.0
4.3622	492.538891043	1261.0
4.3725	492.793972287	1260.0
4.3827	493.045205264	1259.0
4.393	493.297523644	1322.0
4.4032	493.546035439	1312.0
4.4134	493.79320428	1226.0
4.4237	494.041440968	1248.0
4.4339	494.285932647	1228.0
4.4442	494.531480606	1269.0
4.4544	494.773324121	1247.0
4.4646	495.013860718	1240.0
4.4749	495.255436507	1280.0
4.4851	495.493367778	1223.0
4.4954	495.732326986	1326.0
4.5056	495.96768115	1272.0
4.5158	496.201763464	1248.0
4.5261	496.436857086	1242.0
4.5363	496.668403983	1275.0
4.5466	496.900951234	1253.0
4.5568	497.129990174	1232.0
4.567	497.357791393	1236.0
4.5773	497.586576783	1261.0
4.5875	497.811910617	1262.0
4.5978	498.038217961	1298.0
4.608	498.261111135	1277.0
4.6182	498.482799797	1228.0
4.6285	498.705446223	1250.0
4.6387	498.924733707	1289.0
4.649	499.144968581	1220.0
4.6592	499.361880895	1251.0
4.6694	499.577621019	1227.0
4.6797	499.794293206	1269.0
4.6899	500.007696582	1228.0
4.7002	500.222021927	1271.0
4.7104	500.433113865	1216.0
4.7206	500.643065066	1207.0
4.7309	500.853923321	1223.0
4.7411	501.061600476	1183.0
4.7514	501.270174861	1227.0
4.7616	501.4756026	1206.0
4.7718	501.679920212	1177.0
4.7821	501.88512054	1131.0
4.7923	502.087225125	1128.0
4.8026	502.290202863	1180.0
4.8128	502.490118391	1130.0
4.823	502.688953579	1098.0
4.8333	502.888647797	1074.0
4.8435	503.08532934	1128.0
4.8538	503.282860607	1054.0
4.864	503.477411832	1112.0
4.8742	503.670911705	1107.0
4.8845	503.865247557	1000.0
4.8947	504.056651573	1032.0
4.905	504.248882514	992.0
4.9152	504.438213374	1039.0
4.9254	504.626521094	998.0
4.9357	504.815642362	1005.0
4.9459	505.001910463	994.0
4.9562	505.188983299	911.0
4.9664	505.373233873	977.0
4.9766	505.55648876	865.0
4.9869	505.740535365	926.0
4.9971	505.921805361	867.0
5.0074	506.1038585	890.0
5.0176	506.283165106	867.0
5.0278	506.461502742	829.0
5.0381	506.640610852	839.0
5.0483	506.817016858	822.0
5.0586	506.994184992	803.0
5.0688	507.16868029	742.0
5.079	507.342232619	766.0
5.0893	507.516534747	725.0
5.0995	507.688207277	737.0
5.1098	507.860621486	728.0
5.12	508.030434578	681.0
5.1302	508.199330003	630.0
5.1405	508.368955108	653.0
5.1507	508.536021175	597.0
5.161	508.703809018	594.0
5.1712	508.869065541	594.0
5.1814	509.03342902	567.0
5.1917	509.198502601	560.0
5.2019	509.361085809	526.0
5.2122	509.524371426	495.0
5.2224	509.685193645	525.0
5.2326	509.845146784	498.0
5.2429	510.005790969	467.0
5.2531	510.164011606	437.0
5.2634	510.322915805	458.0
5.2736	510.479422705	441.0
5.2838	510.635083845	441.0
5.2941	510.79141749	421.0
5.3043	510.945392616	370.0
5.3146	511.100032962	359.0
5.3248	511.252340336	371.0
5.335	511.403824644	387.0
5.3453	511.555963411	327.0
5.3555	511.705806945	317.0
5.3658	511.85629785	327.0
5.376	512.004518383	297.0
5.3862	512.151937936	304.0
5.3965	512.299994385	284.0
5.4067	512.445817191	268.0
5.417	512.592269996	281.0
5.4272	512.736513349	282.0
5.4374	512.879977215	249.0
5.4477	513.024060888	225.0
5.4579	513.165970852	243.0
5.4682	513.308493911	216.0
5.4784	513.448866804	216.0
5.4886	513.588481125	213.0
5.4989	513.728698622	184.0
5.5091	513.866800737	180.0
5.5194	514.005499496	174.0
5.5296	514.142105785	177.0
5.5398	514.277973855	173.0
5.5501	514.414428918	171.0
5.5603	514.548825359	140.0
5.5706	514.683802435	159.0
5.5808	514.816743187	134.0
5.591	514.94896553	145.0
5.6013	515.081759114	140.0
5.6115	515.212549316	118.0
5.6218	515.343904572	99.0
5.632	515.473278145	116.0
5.6422	515.601952586	97.0
5.6525	515.731182939	91.0
5.6627	515.858463667	110.0
5.673	515.986294287	100.0
5.6832	516.112196398	102.0
5.6934	516.237418137	80.0
5.7037	516.363180872	79.0
5.7139	516.487046295	86.0
5.7242	516.611446855	71.0
5.7344	516.733970654	83.0
5.7446	516.855832336	77.0
5.7549	516.978220498	64.0
5.7651	517.098762259	67.0
5.7754	517.219824798	45.0
5.7856	517.339060933	59.0
5.7958	517.457652719	54.0
5.8061	517.576756858	65.0
5.8163	517.69406414	59.0
5.8266	517.811878225	45.0
5.8368	517.927914916	44.0
5.847	518.043324546	52.0
5.8573	518.159232782	27.0
5.8675	518.273392375	47.0
5.8778	518.388045172	43.0
5.888	518.500968267	40.0
5.8982	518.613281128	37.0
5.9085	518.726079215	39.0
5.9187	518.837175581	25.0
5.929	518.948751917	40.0
5.9392	519.058644964	29.0
5.9494	519.167944151	20.0
5.9597	519.277715543	18.0
5.9699	519.385830877	33.0
5.9802	519.494413302	16.0
5.9904	519.601357605	34.0
6.0006	519.707723983	28.0
6.0109	519.814549896	24.0
6.0211	519.919764187	25.0
6.0314	520.025433036	18.0
6.0416	520.129507719	24.0
6.0518	520.233019983	28.0
6.0621	520.336979453	18.0
6.0723	520.439370545	20.0
6.0826	520.542203997	19.0
6.0928	520.643486059	25.0
6.103	520.744220795	21.0
6.1133	520.845390736	20.0
6.1235	520.945034382	23.0
6.1338	521.04510852	18.0
6.144	521.143672896	15.0
6.1542	521.241704631	14.0
6.1645	521.340159894	14.0
6.1747	521.437129818	16.0
6.185	521.534518681	22.0
6.1952	521.630438294	16.0
6.2054	521.725839558	13.0
6.2157	521.821652986	12.0
6.2259	521.91602093	14.0
6.2362	522.010796572	15.0
6.2464	522.104142388	13.0
6.2566	522.196983765	8.0
6.2669	522.290226245	11.0
6.2771	522.382062028	9.0
6.2874	522.47429457	16.0
6.2976	522.565135652	12.0
6.3078	522.65548583	13.0
6.3181	522.746226348	12.0
6.3283	522.835597915	22.0
6.3386	522.925355595	15.0
6.3488	523.013759152	21.0
6.359	523.101684977	12.0
6.3693	523.189990668	13.0
6.3795	523.276964142	10.0
6.3898	523.364313367	15.0
6.4	523.450344804	14.0
6.4102	523.535911329	14.0
6.4205	523.621847527	9.0
6.4307	523.706487254	10.0
6.441	523.791492651	7.0
6.4512	523.875215619	16.0
6.4614	523.95848615	9.0
6.4717	524.042116435	6.0
6.4819	524.124485037	12.0
6.4922	524.207209497	13.0
6.5024	524.288685939	7.0
6.5126	524.369722084	11.0
6.5229	524.45110833	15.0
6.5331	524.531266748	8.0
6.5434	524.611771475	12.0
6.5536	524.691061672	11.0
6.5638	524.769923386	13.0
6.5741	524.849125807	7.0
6.5843	524.927133346	13.0
6.5946	525.005477901	6.0
6.6048	525.082640516	9.0
6.615	525.159386146	14.0
6.6253	525.23646334	12.0
6.6355	525.312377714	12.0
6.6458	525.388620062	6.0
6.656	525.463712184	9.0
6.6662	525.53839851	7.0
6.6765	525.613407503	14.0
6.6867	525.687284878	7.0
6.697	525.761481426	7.0
6.7072	525.834558613	10.0
6.7174	525.907240891	8.0
6.7277	525.98023718	9.0
6.7379	526.052132214	10.0
6.7482	526.124337858	5.0
6.7584	526.195454175	5.0
6.7686	526.266186181	8.0
6.7789	526.337223771	11.0
6.7891	526.407189656	6.0
6.7994	526.477457816	8.0
6.8096	526.54666588	12.0
6.8198	526.615499945	5.0
6.8301	526.684631393	7.0
6.8403	526.752719895	9.0
6.8506	526.82110256	2.0
6.8608	526.888453574	9.0
6.871	526.955440624	7.0
6.8813	527.022717079	11.0
6.8915	527.088978572	8.0
6.9018	527.155526335	6.0
6.912	527.22107013	7.0
6.9222	527.286259727	8.0
6.9325	527.351730963	8.0
6.9427	527.416214471	4.0
6.953	527.480976568	14.0
6.9632	527.544761635	4.0
6.9734	527.608202009	6.0
6.9837	527.671916465	12.0
6.9939	527.734669697	4.0
7.0042	527.797694042	7.0
7.0144	527.859767575	3.0
7.0246	527.921505663	8.0
7.0349	527.983510478	8.0
7.0451	528.044579862	7.0
7.0554	528.105913085	6.0
7.0656	528.166321007	7.0
7.0758	528.226402486	7.0
7.0861	528.286743536	5.0
7.0963	528.346174254	6.0
7.1066	528.405861731	2.0
7.1168	528.464648737	8.0
7.127	528.523118059	7.0
7.1373	528.581839986	4.0
7.1475	528.639676009	6.0
7.1578	528.6977619	6.0
7.168	528.754971483	5.0
7.1782	528.811871906	6.0
7.1885	528.869018157	1.0
7.1987	528.925302274	7.0
7.209	528.981829556	11.0
7.2192	529.037504043	4.0
7.2294	529.092877665	3.0
7.2397	529.148490519	6.0
7.2499	529.203264373	11.0
7.2602	529.258274867	9.0
7.2704	529.312455448	5.0
7.2806	529.366343239	5.0
7.2909	529.420463841	7.0
7.3011	529.473767956	7.0
7.3114	529.527302362	4.0
7.3216	529.580029124	5.0
7.3318	529.632470951	5.0
7.3421	529.685139344	7.0
7.3523	529.737013157	6.0
7.3626	529.789111082	4.0
7.3728	529.840423035	6.0
7.383	529.891457699	4.0
7.3933	529.942712848	4.0
7.4035	529.993194739	7.0
7.4138	530.043894728	6.0
7.424	530.093829835	7.0
7.4342	530.143495093	6.0
7.4445	530.193374921	3.0
7.4547	530.242502239	1.0
7.465	530.291841803	3.0
7.4752	530.340437008	7.0
7.4854	530.388769606	3.0
7.4957	530.437311015	5.0
7.5059	530.485120108	6.0
7.5162	530.53313575	10.0
7.5264	530.580427008	3.0
7.5366	530.627462704	5.0
7.5469	530.674701609	6.0
7.5571	530.721227848	4.0
7.5674	530.767955094	9.0
7.5776	530.813977392	4.0
7.5878	530.859750987	4.0
7.5981	530.905722337	5.0
7.6083	530.951000144	4.0
7.6186	530.996473565	2.0
7.6288	531.041260953	1.0
7.639	531.085806312	3.0
7.6493	531.13054412	5.0
7.6595	531.174606994	5.0
7.6698	531.218860233	6.0
7.68	531.262445849	2.0
7.6902	531.305795929	2.0
7.7005	531.349333294	4.0
