TL-DOS Lehrstuhlversuch
detector=R1408104
job_number=2015-10-30-004
irradiation_dose [mSv]=0.3

[BEGIN DATA]
time [sec] 	 temperature [K] 	 photoncount 
0.0	174.810535179	0.0
0.0102	176.640987184	0.0
0.0205	178.480351748	1.0
0.0307	180.2929567	2.0
0.041	182.114387313	4.0
0.0512	183.909319222	1.0
0.0614	185.695522018	0.0
0.0717	187.490421922	2.0
0.0819	189.259209099	1.0
0.0922	191.036608586	4.0
0.1024	192.788149946	1.0
0.1126	194.531173211	1.0
0.1229	196.28268334	0.0
0.1331	198.008711988	2.0
0.1434	199.743144754	0.0
0.1536	201.452344486	2.0
0.1638	203.153232037	2.0
0.1741	204.862401292	3.0
0.1843	206.546705054	0.0
0.1946	208.239209773	0.0
0.2048	209.907091439	1.0
0.215	211.566861863	0.0
0.2253	213.23471379	0.0
0.2355	214.87830132	0.0
0.2458	216.529891557	1.0
0.256	218.157453978	1.0
0.2662	219.777101236	0.0
0.2765	221.404634636	1.0
0.2867	223.008490205	0.0
0.297	224.620155024	0.0
0.3072	226.208372874	0.0
0.3174	227.788866902	0.0
0.3277	229.377056432	0.0
0.3379	230.942140517	0.0
0.3482	232.514845072	0.0
0.3584	234.064669463	0.0
0.3686	235.606956748	0.0
0.3789	237.156753504	0.0
0.3891	238.684003364	0.0
0.3994	240.218689478	0.0
0.4096	241.731048531	0.0
0.4198	243.236052679	0.0
0.4301	244.748384765	0.0
0.4403	246.238715003	0.0
0.4506	247.736301731	0.0
0.4608	249.21210113	0.0
0.471	250.680723421	0.0
0.4813	252.156496505	0.0
0.4915	253.610799612	0.0
0.5018	255.072183791	0.0
0.512	256.512307326	0.0
0.5222	257.945427253	0.0
0.5325	259.38552511	0.0
0.5427	260.804672003	0.0
0.553	262.230728791	0.0
0.5632	263.636038889	0.0
0.5734	265.034514682	0.0
0.5837	266.439799722	1.0
0.5939	267.824640265	0.0
0.6042	269.216223664	0.0
0.6144	270.587561901	0.0
0.6246	271.952231046	0.0
0.6349	273.323544832	0.0
0.6451	274.674908344	0.0
0.6554	276.03285171	0.0
0.6656	277.371039321	0.0
0.6758	278.702719057	0.0
0.6861	280.040882806	0.0
0.6963	281.359578558	0.0
0.7066	282.684695104	0.0
0.7168	283.990533468	1.0
0.727	285.290021279	0.0
0.7373	286.595836358	1.0
0.7475	287.882654059	0.0
0.7578	289.175737338	0.0
0.768	290.450008463	0.0
0.7782	291.718082553	0.0
0.7885	292.992330958	0.0
0.7987	294.248041224	0.0
0.809	295.509865605	0.0
0.8192	296.753332597	1.0
0.8294	297.990752359	1.0
0.8397	299.234197179	0.0
0.8499	300.459552	0.0
0.8602	301.690873133	0.0
0.8704	302.904280648	0.0
0.8806	304.111787118	0.0
0.8909	305.325172996	0.0
0.9011	306.520906182	1.0
0.9114	307.722461451	0.0
0.9216	308.906536144	1.0
0.9318	310.084852444	0.0
0.9421	311.268906023	0.0
0.9523	312.435733646	0.0
0.9626	313.608242608	1.0
0.9728	314.763693568	0.0
0.983	315.913525339	2.0
0.9933	317.068955696	0.0
1.0035	318.207576516	0.0
1.0138	319.351741335	1.0
1.024	320.479260511	0.0
1.0342	321.601296335	1.0
1.0445	322.728795406	3.0
1.0547	323.839891291	0.0
1.065	324.956397157	0.0
1.0752	326.056659769	1.0
1.0854	327.151571584	2.0
1.0957	328.251814577	1.0
1.1059	329.336050914	1.0
1.1162	330.425566451	1.0
1.1264	331.499231398	0.0
1.1366	332.567674897	0.0
1.1469	333.641320699	3.0
1.1571	334.699346789	2.0
1.1674	335.762524459	0.0
1.1776	336.81023471	3.0
1.1878	337.852849737	2.0
1.1981	338.900541306	1.0
1.2083	339.932990753	5.0
1.2186	340.970467246	0.0
1.2288	341.992850229	2.0
1.239	343.010261158	4.0
1.2493	344.032625911	0.0
1.2595	345.040117003	2.0
1.2698	346.052513617	0.0
1.28	347.050181591	2.0
1.2902	348.042997705	4.0
1.3005	349.040647889	2.0
1.3107	350.023783967	1.0
1.321	351.011706982	4.0
1.3312	351.985257405	1.0
1.3414	352.954073258	4.0
1.3517	353.927606321	3.0
1.3619	354.886976142	8.0
1.3722	355.851017181	3.0
1.3824	356.801033069	9.0
1.3926	357.74642884	5.0
1.4029	358.696427789	6.0
1.4131	359.632605876	11.0
1.4234	360.57334226	6.0
1.4336	361.500392536	7.0
1.4438	362.42293438	15.0
1.4541	363.349968126	5.0
1.4643	364.263515115	15.0
1.4746	365.181510208	5.0
1.4848	366.08615004	11.0
1.495	366.986390428	9.0
1.5053	367.89101413	12.0
1.5155	368.782477102	12.0
1.5258	369.678280651	15.0
1.536	370.561051789	17.0
1.5462	371.439529833	13.0
1.5565	372.32228523	19.0
1.5667	373.192198044	12.0
1.577	374.066346505	14.0
1.5872	374.927777599	24.0
1.5974	375.785019382	18.0
1.6077	376.646435116	18.0
1.6179	377.495318723	17.0
1.6282	378.348335585	19.0
1.6384	379.18894251	24.0
1.6486	380.025461394	19.0
1.6589	380.866053329	31.0
1.6691	381.694416088	25.0
1.6794	382.526812185	35.0
1.6896	383.347098341	34.0
1.6998	384.16339528	36.0
1.7101	384.98366681	27.0
1.7203	385.792004789	39.0
1.7306	386.604278606	35.0
1.7408	387.404735226	34.0
1.751	388.201299065	39.0
1.7613	389.001741412	39.0
1.7715	389.79053869	44.0
1.7818	390.583176661	50.0
1.792	391.364283103	48.0
1.8022	392.141590868	55.0
1.8125	392.922683382	54.0
1.8227	393.692412334	63.0
1.833	394.465889134	53.0
1.8432	395.228113168	52.0
1.8534	395.986630354	63.0
1.8637	396.748840796	54.0
1.8739	397.499962379	60.0
1.8842	398.254741209	64.0
1.8944	398.998539297	59.0
1.9046	399.738720145	52.0
1.9149	400.48250497	56.0
1.9251	401.215468996	65.0
1.9354	401.952001859	79.0
1.9456	402.677819428	56.0
1.9558	403.4001072	75.0
1.9661	404.125911827	62.0
1.9763	404.841157236	54.0
1.9866	405.55988521	71.0
1.9968	406.268156919	55.0
2.007	406.972984161	56.0
2.0173	407.681243241	75.0
2.0275	408.379198362	61.0
2.0378	409.080551859	61.0
2.048	409.771701862	55.0
2.0582	410.459490663	46.0
2.0685	411.150628342	66.0
2.0787	411.831711148	49.0
2.089	412.516110179	46.0
2.0992	413.190552374	54.0
2.1094	413.861714621	44.0
2.1197	414.536144789	61.0
2.1299	415.200763151	47.0
2.1402	415.868617571	39.0
2.1504	416.526755851	48.0
2.1606	417.181693472	46.0
2.1709	417.839820016	37.0
2.1811	418.488371944	56.0
2.1914	419.140081702	42.0
2.2016	419.782310196	52.0
2.2118	420.421415405	45.0
2.2221	421.063632448	46.0
2.2323	421.69650633	46.0
2.2426	422.332461706	37.0
2.2528	422.959165017	50.0
2.263	423.582820544	39.0
2.2733	424.209512681	48.0
2.2835	424.827087517	44.0
2.2938	425.447669356	36.0
2.304	426.059222788	47.0
2.3142	426.667802114	30.0
2.3245	427.279344642	39.0
2.3347	427.881990271	43.0
2.345	428.487570211	44.0
2.3552	429.084339997	42.0
2.3654	429.678207572	49.0
2.3757	430.274966717	44.0
2.3859	430.863044036	46.0
2.3962	431.453984732	61.0
2.4064	432.03632825	52.0
2.4166	432.615839715	40.0
2.4269	433.19817285	68.0
2.4371	433.772034032	56.0
2.4474	434.348689372	50.0
2.4576	434.916955362	51.0
2.4678	435.48245776	48.0
2.4781	436.050713618	50.0
2.4883	436.610702323	66.0
2.4986	437.17341764	63.0
2.5088	437.727946411	71.0
2.519	438.279778397	45.0
2.5293	438.83429728	57.0
2.5395	439.38074886	59.0
2.5498	439.92986114	60.0
2.56	440.470984774	66.0
2.5702	441.009476815	51.0
2.5805	441.550590801	81.0
2.5907	442.083832502	68.0
2.601	442.619670583	48.0
2.6112	443.147713135	66.0
2.6214	443.67318771	58.0
2.6317	444.201220847	76.0
2.6419	444.721572003	55.0
2.6522	445.244456775	69.0
2.6624	445.759734466	64.0
2.6726	446.272506258	70.0
2.6829	446.787774762	63.0
2.6931	447.295546989	69.0
2.7034	447.805791583	67.0
2.7136	448.30861299	54.0
2.7238	448.808989076	62.0
2.7341	449.311801517	63.0
2.7443	449.807298897	64.0
2.7546	450.305208877	61.0
2.7648	450.795875117	69.0
2.775	451.284155149	62.0
2.7853	451.774812641	63.0
2.7955	452.258331904	71.0
2.8058	452.744205445	67.0
2.816	453.223010357	53.0
2.8262	453.699486744	60.0
2.8365	454.178283118	64.0
2.8467	454.650113823	54.0
2.857	455.124241895	60.0
2.8672	455.591472212	64.0
2.8774	456.056430296	55.0
2.8877	456.523652282	53.0
2.8979	456.984076987	49.0
2.9082	457.446743522	50.0
2.9184	457.902679049	61.0
2.9286	458.356397271	62.0
2.9389	458.812324669	57.0
2.9491	459.261619101	51.0
2.9594	459.713101171	45.0
2.9696	460.158014947	60.0
2.9798	460.600765018	48.0
2.9901	461.045670861	43.0
3.0003	461.484104084	41.0
3.0106	461.92467206	52.0
3.0208	462.358830524	61.0
3.031	462.790877589	45.0
3.0413	463.225028311	43.0
3.0515	463.652862883	46.0
3.0618	464.082780601	46.0
3.072	464.506443751	68.0
3.0822	464.928046543	55.0
3.0925	465.351702139	55.0
3.1027	465.769194269	60.0
3.113	466.18871919	62.0
3.1232	466.602140739	53.0
3.1334	467.013551736	47.0
3.1437	467.426965913	50.0
3.1539	467.834365621	54.0
3.1642	468.243748977	44.0
3.1744	468.647176505	55.0
3.1846	469.048642084	47.0
3.1949	469.452062418	49.0
3.2051	469.849613676	45.0
3.2154	470.249100629	61.0
3.2256	470.642775731	37.0
3.2358	471.034536311	50.0
3.2461	471.428204392	43.0
3.2563	471.816145276	51.0
3.2666	472.205975062	50.0
3.2768	472.590133491	50.0
3.287	472.972423681	32.0
3.2973	473.356575259	52.0
3.3075	473.735138089	56.0
3.3178	474.11554416	53.0
3.328	474.490415972	50.0
3.3382	474.863464707	40.0
3.3485	475.238329835	50.0
3.3587	475.607741315	51.0
3.369	475.978951478	52.0
3.3792	476.344761167	42.0
3.3894	476.70879185	50.0
3.3997	477.074595017	44.0
3.4099	477.435076372	47.0
3.4202	477.797312928	42.0
3.4304	478.154279561	39.0
3.4406	478.509510194	44.0
3.4509	478.866470463	48.0
3.4611	479.218237569	51.0
3.4714	479.571717446	58.0
3.4816	479.920054794	63.0
3.4918	480.266698109	38.0
3.5021	480.615029246	50.0
3.5123	480.958292761	49.0
3.5226	481.303227642	48.0
3.5328	481.64314431	44.0
3.543	481.981407895	46.0
3.5533	482.321318502	46.0
3.5635	482.65628399	44.0
3.5738	482.992880442	44.0
3.584	483.32457999	50.0
3.5942	483.654666416	45.0
3.6045	483.98636005	36.0
3.6147	484.313228108	46.0
3.625	484.641687702	52.0
3.6352	484.96536877	34.0
3.6454	485.287475712	47.0
3.6557	485.611151009	38.0
3.6659	485.930117383	45.0
3.6762	486.25063682	53.0
3.6864	486.566493246	37.0
3.6966	486.880813599	37.0
3.7069	487.196664394	43.0
3.7171	487.507920099	50.0
3.7274	487.820691323	44.0
3.7376	488.12891226	42.0
3.7478	488.435634256	44.0
3.7581	488.743849697	43.0
3.7683	489.04758113	41.0
3.7786	489.352791446	45.0
3.7888	489.653561474	29.0
3.799	489.952868796	49.0
3.8093	490.25363346	33.0
3.8195	490.550022512	32.0
3.8298	490.847854697	49.0
3.84	491.141353933	39.0
3.8502	491.433425822	41.0
3.8605	491.726919824	37.0
3.8707	492.01614399	50.0
3.881	492.306776402	49.0
3.8912	492.593180609	34.0
3.9014	492.878191975	45.0
3.9117	493.164591075	45.0
3.9219	493.446823557	44.0
3.9322	493.730430243	25.0
3.9424	494.009910936	42.0
3.9526	494.288032459	38.0
3.9629	494.567508169	36.0
3.9731	494.842917984	44.0
3.9834	495.119668784	34.0
3.9936	495.392393332	48.0
4.0038	495.663791566	29.0
4.0141	495.936511251	32.0
4.0243	496.20526333	47.0
4.0346	496.475323977	36.0
4.0448	496.741455702	44.0
4.055	497.006293175	53.0
4.0653	497.272420155	28.0
4.0755	497.534675442	38.0
4.0858	497.798207663	38.0
4.096	498.05790594	43.0
4.1062	498.316341252	34.0
4.1165	498.576034899	48.0
4.1267	498.831950446	45.0
4.137	499.089112059	39.0
4.1472	499.342532409	31.0
4.1574	499.594720326	43.0
4.1677	499.848136158	29.0
4.1779	500.097865222	49.0
4.1882	500.348810229	42.0
4.1984	500.596104415	41.0
4.2086	500.84219596	33.0
4.2189	501.089485737	32.0
4.2291	501.333177869	40.0
4.2394	501.578056551	42.0
4.2496	501.819372666	39.0
4.2598	502.059515212	35.0
4.2701	502.300827025	43.0
4.2803	502.538628162	29.0
4.2906	502.777587165	37.0
4.3008	503.013069722	34.0
4.311	503.247407081	40.0
4.3213	503.482885439	44.0
4.3315	503.71493799	38.0
4.3418	503.948120416	32.0
4.352	504.177910436	39.0
4.3622	504.406582941	27.0
4.3725	504.636368863	29.0
4.3827	504.862811793	26.0
4.393	505.090357285	37.0
4.4032	505.314592378	39.0
4.4134	505.537736971	27.0
4.4237	505.761968066	27.0
4.4339	505.982936981	24.0
4.4442	506.204981805	30.0
4.4544	506.423796256	35.0
4.4646	506.641546569	33.0
4.4749	506.860357118	24.0
4.4851	507.075984348	24.0
4.4954	507.292661477	27.0
4.5056	507.506186324	27.0
4.5158	507.718672757	25.0
4.5261	507.932193796	27.0
4.5363	508.142608469	26.0
4.5466	508.354047662	23.0
4.5568	508.562410775	22.0
4.567	508.769760577	23.0
4.5773	508.978119975	24.0
4.5875	509.1834481	19.0
4.5978	509.389775977	20.0
4.608	509.593102137	19.0
4.6182	509.79543948	20.0
4.6285	509.998762014	23.0
4.6387	510.199126552	21.0
4.649	510.400466675	8.0
4.6592	510.598877643	9.0
4.6694	510.796323698	15.0
4.6797	510.994731128	12.0
4.6899	511.190252069	13.0
4.7002	511.386725011	16.0
4.7104	511.580339607	8.0
4.7206	511.773012617	16.0
4.7309	511.966623761	14.0
4.7411	512.157418193	14.0
4.7514	512.349141613	12.0
4.7616	512.538075784	8.0
4.7718	512.726091131	8.0
4.7821	512.915021934	5.0
4.7923	513.101204116	8.0
4.8026	513.288292828	12.0
4.8128	513.472659719	8.0
4.823	513.656129997	11.0
4.8333	513.840493601	7.0
4.8435	514.022175029	6.0
4.8538	514.204741073	8.0
4.864	514.384651093	8.0
4.8742	514.563686174	7.0
4.8845	514.743592986	11.0
4.8947	514.920882461	10.0
4.905	515.099035167	7.0
4.9152	515.274596056	10.0
4.9254	515.449303156	7.0
4.9357	515.624860915	7.0
4.9459	515.797864607	6.0
4.9562	515.971710663	4.0
4.9664	516.143027556	10.0
4.9766	516.3135113	4.0
4.9869	516.484825138	7.0
4.9971	516.653646653	8.0
5.0074	516.823290167	2.0
5.0176	516.990465659	6.0
5.0278	517.156828142	3.0
5.0381	517.324000652	7.0
5.0483	517.488741088	3.0
5.0586	517.654283653	5.0
5.0688	517.817417856	2.0
5.079	517.979758706	4.0
5.0893	518.14289	6.0
5.0995	518.303648013	3.0
5.1098	518.465188765	8.0
5.12	518.624379374	4.0
5.1302	518.782795808	4.0
5.1405	518.941983579	1.0
5.1507	519.09885544	5.0
5.161	519.256491117	1.0
5.1712	519.411833465	7.0
5.1814	519.566420352	1.0
5.1917	519.72175993	2.0
5.2019	519.874839582	1.0
5.2122	520.028664586	2.0
5.2224	520.1802517	1.0
5.2326	520.331101615	3.0
5.2429	520.482686026	1.0
5.2531	520.632065142	3.0
5.2634	520.782171592	0.0
5.2736	520.930094251	2.0
5.2838	521.077297531	2.0
5.2941	521.225217552	0.0
5.3043	521.370985588	2.0
5.3146	521.517463377	3.0
5.3248	521.661810164	3.0
5.335	521.805454963	1.0
5.3453	521.949799176	2.0
5.3555	522.092043428	1.0
5.3658	522.234980273	1.0
5.376	522.375837632	0.0
5.3862	522.516009973	0.0
5.3965	522.65686482	3.0
5.4067	522.795670469	1.0
5.417	522.93515197	1.0
5.4272	523.072604253	3.0
5.4374	523.209388079	1.0
5.4477	523.346837911	2.0
5.4579	523.482288083	3.0
5.4682	523.618397769	2.0
5.4784	523.752527291	2.0
5.4886	523.886004515	3.0
5.4989	524.020131645	0.0
5.5091	524.152307455	1.0
5.5194	524.285126836	2.0
5.5296	524.416013921	1.0
5.5398	524.546264476	0.0
5.5501	524.677149228	3.0
5.5603	524.806129829	1.0
5.5706	524.935738444	1.0
5.5808	525.063461475	6.0
5.591	525.190563363	1.0
5.6013	525.318284116	1.0
5.6115	525.444146751	1.0
5.6218	525.570622217	2.0
5.632	525.69525768	0.0
5.6422	525.819287017	2.0
5.6525	525.943920258	2.0
5.6627	526.066740299	0.0
5.673	526.190158357	0.0
5.6832	526.311780892	3.0
5.6934	526.432811953	1.0
5.7037	526.55443232	2.0
5.7139	526.674283318	2.0
5.7242	526.794717877	1.0
5.7344	526.913400318	1.0
5.7446	527.031505583	1.0
5.7549	527.150185908	1.0
5.7651	527.267139638	1.0
5.7754	527.38466282	0.0
5.7856	527.500476241	1.0
5.7958	527.615726439	1.0
5.8061	527.731537795	0.0
5.8163	527.845664293	2.0
5.8266	527.960346479	2.0
5.8368	528.073360236	0.0
5.847	528.185824383	0.0
5.8573	528.298836124	0.0
5.8675	528.410203738	1.0
5.8778	528.522113605	3.0
5.888	528.632395375	0.0
5.8982	528.742140823	1.0
5.9085	528.852420627	1.0
5.9187	528.961096048	0.0
5.929	529.070300615	1.0
5.9392	529.177916442	1.0
5.9494	529.285008912	0.0
5.9597	529.39262282	0.0
5.9699	529.498671129	1.0
5.9802	529.605235793	1.0
5.9904	529.710250123	0.0
6.0006	529.814753748	2.0
6.0109	529.919766205	1.0
6.0211	530.023250911	0.0
6.0314	530.127239489	1.0
6.0416	530.22971521	1.0
6.0518	530.331692572	0.0
6.0621	530.434166466	1.0
6.0723	530.53514954	1.0
6.0826	530.636624306	1.0
6.0928	530.736622787	1.0
6.103	530.836134956	0.0
6.1133	530.936131654	0.0
6.1235	531.034673571	4.0
6.1338	531.133695293	1.0
6.144	531.231276419	0.0
6.1542	531.328382988	1.0
6.1645	531.425962373	0.0
6.1747	531.522122146	3.0
6.185	531.618750124	0.0
6.1952	531.713972331	1.0
6.2054	531.808731453	0.0
6.2157	531.903951962	1.0
6.2259	531.997787175	0.0
6.2362	532.092079276	0.0
6.2464	532.184999588	2.0
6.2566	532.277468011	1.0
6.2669	532.370386666	1.0
6.2771	532.461953514	1.0
6.2874	532.553966205	0.0
6.2976	532.644640268	1.0
6.3078	532.734873366	0.0
6.3181	532.825545813	2.0
6.3283	532.91489913	1.0
6.3386	533.004687514	2.0
6.3488	533.093169629	1.0
6.359	533.181221439	1.0
6.3693	533.269701977	0.0
6.3795	533.356895274	1.0
6.3898	533.444513119	1.0
6.4	533.530856275	0.0
6.4102	533.616779527	1.0
6.4205	533.703121143	0.0
6.4307	533.788206636	0.0
6.441	533.873706414	1.0
6.4512	533.957962317	1.0
6.4614	534.041808466	2.0
6.4717	534.126062867	0.0
6.4819	534.209091509	1.0
6.4922	534.292524423	0.0
6.5024	534.37474353	1.0
6.5126	534.456562789	1.0
6.5229	534.538780429	1.0
6.5331	534.619801944	0.0
6.5434	534.701217956	1.0
6.5536	534.781449505	1.0
6.5638	534.861290871	2.0
6.5741	534.941520989	0.0
6.5843	535.020583895	0.0
6.5946	535.100031763	0.0
6.6048	535.1783238	3.0
6.615	535.256235087	3.0
6.6253	535.334525728	0.0
6.6355	535.411677374	1.0
6.6458	535.489204675	0.0
6.656	535.565604086	1.0
6.6662	535.641631952	0.0
6.6765	535.718030001	1.0
6.6867	535.793316588	0.0
6.697	535.86896975	2.0
6.7072	535.943522288	0.0
6.7174	536.017712262	2.0
6.7277	536.09226347	1.0
6.7379	536.165730085	0.0
6.7482	536.239554413	0.0
6.7584	536.312304723	1.0
6.7686	536.384701234	2.0
6.7789	536.457450247	0.0
6.7891	536.529140886	3.0
6.7994	536.601180591	3.0
6.8096	536.67217224	1.0
6.8198	536.742818643	2.0
6.8301	536.813809027	1.0
6.8403	536.883766622	0.0
6.8506	536.954064844	1.0
6.8608	537.023340347	0.0
6.871	537.092278949	2.0
6.8813	537.161553217	1.0
6.8915	537.229819662	1.0
6.9018	537.2984185	3.0
6.912	537.366019342	2.0
6.9222	537.433291428	1.0
6.9325	537.500891064	0.0
6.9427	537.567507242	0.0
6.953	537.634447777	1.0
6.9632	537.700414441	1.0
6.9734	537.766060296	1.0
6.9837	537.832025784	0.0
6.9939	537.897031587	1.0
7.0042	537.962353907	1.0
7.0144	538.026725898	0.0
7.0246	538.090784835	2.0
7.0349	538.155155679	4.0
7.0451	538.218590036	0.0
7.0554	538.282333259	0.0
7.0656	538.345149127	1.0
7.0758	538.407659508	1.0
7.0861	538.470474256	1.0
7.0963	538.532375156	1.0
7.1066	538.594577455	3.0
7.1168	538.655874816	0.0
7.127	538.716874076	0.0
7.1373	538.778170345	0.0
7.1475	538.838574857	1.0
7.1578	538.899273482	0.0
7.168	538.959089046	1.0
7.1782	539.018613715	0.0
7.1885	539.078428212	2.0
7.1987	539.13737251	0.0
7.209	539.196603811	0.0
7.2192	539.254973398	0.0
7.2294	539.313059122	2.0
7.2397	539.371427668	1.0
7.2499	539.428947051	0.0
7.2602	539.486746499	0.0
7.2704	539.543705064	1.0
7.2806	539.600386628	1.0
7.2909	539.657344177	2.0
7.3011	539.713473091	0.0
7.3114	539.7698753	1.0
7.3216	539.825456953	4.0
7.3318	539.880768301	4.0
7.3421	539.936348962	0.0
7.3523	539.99112102	0.0
7.3626	540.046159766	0.0
7.3728	540.100397792	1.0
7.383	540.154372048	1.0
7.3933	540.208609107	0.0
7.4035	540.262057109	0.0
7.4138	540.315765353	0.0
7.424	540.368692233	0.0
7.4342	540.421361719	2.0
7.4445	540.474287655	2.0
7.4547	540.52644361	1.0
7.465	540.578853514	1.0
7.4752	540.630500944	0.0
7.4854	540.681897202	0.0
7.4957	540.73354371	0.0
7.5059	540.784438851	1.0
7.5162	540.835581802	0.0
7.5264	540.885980711	0.0
7.5366	540.936134519	1.0
7.5469	540.986532529	1.0
7.5571	541.036197334	1.0
7.5674	541.08610396	1.0
7.5776	541.135284529	1.0
7.5878	541.184225923	0.0
7.5981	541.233405615	0.0
7.6083	541.281869827	0.0
7.6186	541.330570013	0.0
7.6288	541.378561695	0.0
7.639	541.426319984	0.0
7.6493	541.47431081	1.0
7.6595	541.521603452	2.0
7.6698	541.569126363	1.0
7.68	541.615957898	1.0
7.6902	541.662561681	1.0
7.7005	541.709392381	0.0
7.7107	541.755541774	0.0
7.721	541.80191587	1.0
7.7312	541.847615303	1.0
7.7414	541.89309249	2.0
7.7517	541.938791107	1.0
7.7619	541.983824888	1.0
7.7722	542.029077941	0.0
7.7824	542.073672639	0.0
7.7926	542.118050464	0.0
7.8029	542.162644366	1.0
7.8131	542.206589504	1.0
7.8234	542.250748613	2.0
7.8336	542.294265282	1.0
7.8438	542.337570321	0.0
7.8541	542.381086214	0.0
7.8643	542.423969025	0.0
7.8746	542.467060635	1.0
7.8848	542.509525335	1.0
7.895	542.551783521	1.0
7.9053	542.594247464	0.0
7.9155	542.63609363	0.0
7.9258	542.678143546	0.0
7.936	542.719581708	2.0
7.9462	542.760818348	0.0
7.9565	542.802255771	1.0
7.9667	542.84309035	0.0
7.977	542.884123755	1.0
7.9872	542.924560194	2.0
7.9974	542.964799982	1.0
8.0077	543.0052357	0.0
8.0179	543.045083147	1.0
8.0282	543.085124614	0.0
8.0384	543.124583545	0.0
8.0486	543.16385058	1.0
8.0589	543.203308808	0.0
8.0691	543.242192986	1.0
