TL-DOS Lehrstuhlversuch
detector=R1408304
job_number=2015-10-14-002
irradiation_dose [mSv]=5.0

[BEGIN DATA]
time [sec] 	 temperature [K] 	 photoncount 
0.0	247.753294836	0.0
0.0102	248.472656241	0.0
0.0205	249.19760918	3.0
0.0307	249.9140798	0.0
0.041	250.636119485	1.0
0.0512	251.349710938	3.0
0.0614	252.061874144	2.0
0.0717	252.779572932	0.0
0.0819	253.48887428	2.0
0.0922	254.203688966	0.0
0.1024	254.910139956	2.0
0.1126	255.615176991	0.0
0.1229	256.325694216	0.0
0.1331	257.02789803	1.0
0.1434	257.735560012	0.0
0.1536	258.43494199	0.0
0.1638	259.13292416	2.0
0.1741	259.836331684	0.0
0.1843	260.531508984	0.0
0.1946	261.232089836	0.0
0.2048	261.924473536	3.0
0.215	262.615471436	0.0
0.2253	263.311840401	2.0
0.2355	264.000061497	2.0
0.2458	264.693632075	2.0
0.256	265.379087525	0.0
0.2662	266.063171041	0.0
0.2765	266.752571878	0.0
0.2867	267.433906376	0.0
0.297	268.120536827	0.0
0.3072	268.799133354	0.0
0.3174	269.476371675	0.0
0.3277	270.15887411	0.0
0.3379	270.83339092	0.0
0.3482	271.51315069	1.0
0.3584	272.184956926	0.0
0.3686	272.855418546	0.0
0.3789	273.531091607	0.0
0.3891	274.198858949	0.0
0.3994	274.871816789	0.0
0.4096	275.53690068	1.0
0.4198	276.200653412	2.0
0.4301	276.869565435	0.0
0.4403	277.530650847	0.0
0.4506	278.196874819	0.0
0.4608	278.855303633	0.0
0.471	279.512414606	0.0
0.4813	280.174633245	0.0
0.4915	280.82910359	0.0
0.5018	281.488661076	0.0
0.512	282.140501404	0.0
0.5222	282.791037079	1.0
0.5325	283.446629311	0.0
0.5427	284.094550781	0.0
0.553	284.747508487	0.0
0.5632	285.392826258	0.0
0.5734	286.036852429	0.0
0.5837	286.68588456	0.0
0.5939	287.327322686	0.0
0.6042	287.973746654	0.0
0.6144	288.612607133	0.0
0.6246	289.250188938	1.0
0.6349	289.89272661	0.0
0.6451	290.527746266	1.0
0.6554	291.167701874	0.0
0.6656	291.800169676	0.0
0.6758	292.431371599	0.0
0.6861	293.0674798	0.0
0.6963	293.696145211	0.0
0.7066	294.329697184	1.0
0.7168	294.955836277	0.0
0.727	295.580722158	0.0
0.7373	296.210465222	0.0
0.7475	296.832839972	1.0
0.7578	297.460052387	0.0
0.768	298.079926098	0.0
0.7782	298.698559137	0.0
0.7885	299.322000756	0.0
0.7987	299.938147792	0.0
0.809	300.559084084	0.0
0.8192	301.172755108	0.0
0.8294	301.785197873	1.0
0.8397	302.402401102	0.0
0.8499	303.01238274	0.0
0.8602	303.627105712	0.0
0.8704	304.234636113	0.0
0.8806	304.840950547	1.0
0.8909	305.45197781	0.0
0.9011	306.055855744	0.0
0.9114	306.664427568	0.0
0.9216	307.265878793	0.0
0.9318	307.866126218	1.0
0.9421	308.471039314	0.0
0.9523	309.068874619	0.0
0.9626	309.671356846	0.0
0.9728	310.266789725	1.0
0.983	310.86103085	3.0
0.9933	311.459890959	0.0
1.0035	312.0517441	0.0
1.0138	312.648197665	2.0
1.024	313.23767242	0.0
1.0342	313.825967345	1.0
1.0445	314.418835036	0.0
1.0547	315.004765874	1.0
1.065	315.595251101	0.0
1.0752	316.178827351	1.0
1.0854	316.761235578	0.0
1.0957	317.348170813	0.0
1.1059	317.928238608	1.0
1.1162	318.512815219	0.0
1.1264	319.090551987	2.0
1.1366	319.667132419	1.0
1.1469	320.24819456	1.0
1.1571	320.82245798	1.0
1.1674	321.401185099	0.0
1.1776	321.973140817	0.0
1.1878	322.543951769	0.0
1.1981	323.119199586	0.0
1.2083	323.687716711	0.0
1.2186	324.26065287	0.0
1.2288	324.826885385	1.0
1.239	325.39198459	2.0
1.2493	325.961476261	0.0
1.2595	326.524304591	0.0
1.2698	327.091507737	1.0
1.28	327.652074317	1.0
1.2902	328.211518928	0.0
1.3005	328.775312053	4.0
1.3107	329.332508513	0.0
1.321	329.894036011	3.0
1.3312	330.448993353	4.0
1.3414	331.002839952	0.0
1.3517	331.560991552	0.0
1.3619	332.112612495	2.0
1.3722	332.66852114	0.0
1.3824	333.217925371	1.0
1.3926	333.766229974	0.0
1.4029	334.3187965	1.0
1.4131	334.864897718	0.0
1.4234	335.415243733	0.0
1.4336	335.95915042	0.0
1.4438	336.501968482	2.0
1.4541	337.049005821	2.0
1.4643	337.589642546	3.0
1.4746	338.134481592	4.0
1.4848	338.672945745	1.0
1.495	339.210332167	3.0
1.5053	339.751895646	1.0
1.5155	340.287122557	0.0
1.5258	340.826509741	5.0
1.536	341.35958582	2.0
1.5462	341.891594952	2.0
1.5565	342.427739345	1.0
1.5667	342.957610575	2.0
1.577	343.491600449	0.0
1.5872	344.01934237	4.0
1.5974	344.54602802	3.0
1.6077	345.076807551	9.0
1.6179	345.601376692	3.0
1.6282	346.130023263	2.0
1.6384	346.652484401	3.0
1.6486	347.173899837	2.0
1.6589	347.699368189	1.0
1.6691	348.218688296	5.0
1.6794	348.742045032	5.0
1.6896	349.259278228	3.0
1.6998	349.775476186	8.0
1.7101	350.295686506	5.0
1.7203	350.809810101	11.0
1.7306	351.327929933	5.0
1.7408	351.839987501	10.0
1.751	352.351020189	7.0
1.7613	352.86602509	3.0
1.7715	353.375004172	8.0
1.7818	353.887939504	12.0
1.792	354.394873232	8.0
1.8022	354.900792336	14.0
1.8125	355.410643906	11.0
1.8227	355.914529952	13.0
1.833	356.422332662	4.0
1.8432	356.924193821	8.0
1.8534	357.42505051	11.0
1.8637	357.929800313	12.0
1.8739	358.428644288	27.0
1.8842	358.931365733	13.0
1.8944	359.428205083	15.0
1.9046	359.924050012	23.0
1.9149	360.4237491	20.0
1.9251	360.917601456	15.0
1.9354	361.415292482	28.0
1.9456	361.907160271	20.0
1.9558	362.39804359	21.0
1.9661	362.892742503	30.0
1.9763	363.381653187	24.0
1.9866	363.874364131	30.0
1.9968	364.361310107	28.0
2.007	364.847281464	31.0
2.0173	365.337030234	37.0
2.0275	365.821048695	36.0
2.0378	366.308829389	29.0
2.048	366.790902801	36.0
2.0582	367.272011347	32.0
2.0685	367.756859508	43.0
2.0787	368.236034699	45.0
2.089	368.718934477	43.0
2.0992	369.196184083	36.0
2.1094	369.672478477	52.0
2.1197	370.152475066	47.0
2.1299	370.626855451	57.0
2.1402	371.104923153	59.0
2.1504	371.577397221	66.0
2.1606	372.048925635	71.0
2.1709	372.524119198	62.0
2.1811	372.993752756	65.0
2.1914	373.467036734	77.0
2.2016	373.934783049	76.0
2.2118	374.401593174	99.0
2.2221	374.872031773	80.0
2.2323	375.336966001	94.0
2.2426	375.805514123	81.0
2.2528	376.268579993	106.0
2.263	376.730719041	91.0
2.2733	377.196450256	95.0
2.2835	377.656732178	105.0
2.2938	378.120591832	116.0
2.304	378.579024093	119.0
2.3142	379.036538804	142.0
2.3245	379.497609738	136.0
2.3347	379.953285908	147.0
2.345	380.412504008	128.0
2.3552	380.866349024	180.0
2.3654	381.319285673	168.0
2.3757	381.775742958	172.0
2.3859	382.226859462	174.0
2.3962	382.681482454	192.0
2.4064	383.130786127	210.0
2.4166	383.579190522	224.0
2.4269	384.031080326	216.0
2.4371	384.477682789	227.0
2.4474	384.927756654	220.0
2.4576	385.372564426	261.0
2.4678	385.816481919	284.0
2.4781	386.263849944	246.0
2.4883	386.705983535	276.0
2.4986	387.151553793	318.0
2.5088	387.591910652	287.0
2.519	388.031386141	314.0
2.5293	388.474277634	313.0
2.5395	388.911987072	350.0
2.5498	389.353098787	369.0
2.56	389.789049271	376.0
2.5702	390.224127203	393.0
2.5805	390.662586958	392.0
2.5907	391.095916512	432.0
2.601	391.532614298	457.0
2.6112	391.964202498	465.0
2.6214	392.394926878	479.0
2.6317	392.828999241	459.0
2.6419	393.257992737	496.0
2.6522	393.690320762	520.0
2.6624	394.117590329	498.0
2.6726	394.54400472	539.0
2.6829	394.973733593	548.0
2.6931	395.398434419	571.0
2.7034	395.826436408	619.0
2.7136	396.249430556	550.0
2.7238	396.671578085	633.0
2.7341	397.09700693	668.0
2.7443	397.517458041	658.0
2.7546	397.941177282	698.0
2.7648	398.359938793	718.0
2.775	398.777862156	690.0
2.7853	399.199034	748.0
2.7955	399.615277921	740.0
2.8058	400.034757268	716.0
2.816	400.449328495	765.0
2.8262	400.86306996	743.0
2.8365	401.280027402	790.0
2.8467	401.69210623	788.0
2.857	402.10738811	783.0
2.8672	402.517810982	830.0
2.8774	402.927412396	846.0
2.8877	403.340197605	800.0
2.8979	403.748153018	806.0
2.9082	404.159279433	817.0
2.9184	404.56559546	771.0
2.9286	404.971098249	870.0
2.9389	405.379752975	814.0
2.9491	405.783626234	811.0
2.9594	406.190638764	893.0
2.9696	406.592889041	817.0
2.9798	406.994334217	829.0
2.9901	407.398899791	800.0
3.0003	407.798731743	815.0
3.0106	408.201671553	814.0
3.0208	408.599896764	805.0
3.031	408.997324929	771.0
3.0413	409.397842269	815.0
3.0515	409.793673353	779.0
3.0618	410.192581197	792.0
3.072	410.586821617	805.0
3.0822	410.980272967	744.0
3.0925	411.376782581	772.0
3.1027	411.768652831	734.0
3.113	412.163569054	671.0
3.1232	412.553864557	702.0
3.1334	412.943378886	658.0
3.1437	413.335920876	620.0
3.1539	413.723869926	604.0
3.1642	414.114834469	614.0
3.1744	414.501224529	588.0
3.1846	414.886841233	580.0
3.1949	415.275455301	563.0
3.2051	415.659522387	596.0
3.2154	416.046574793	506.0
3.2256	416.42909849	521.0
3.2358	416.810856568	507.0
3.2461	417.195582019	453.0
3.2563	417.575805986	500.0
3.2666	417.958985401	426.0
3.2768	418.337681423	432.0
3.287	418.715619487	447.0
3.2973	419.096495231	414.0
3.3075	419.472914535	461.0
3.3178	419.852259714	371.0
3.328	420.227166361	417.0
3.3382	420.601322636	408.0
3.3485	420.978387194	393.0
3.3587	421.351039906	357.0
3.369	421.726589215	397.0
3.3792	422.097744406	406.0
3.3894	422.468156733	406.0
3.3997	422.841448243	374.0
3.4099	423.210372053	382.0
3.4202	423.582163475	410.0
3.4304	423.949604748	394.0
3.4406	424.316310591	420.0
3.4509	424.685866806	416.0
3.4611	425.051099026	395.0
3.4714	425.419170164	439.0
3.4816	425.782934683	423.0
3.4918	426.14597113	460.0
3.5021	426.511829428	456.0
3.5123	426.873406997	481.0
3.5226	427.237795078	429.0
3.5328	427.597919633	481.0
3.543	427.957323402	453.0
3.5533	428.319520784	496.0
3.5635	428.677480274	493.0
3.5738	429.038222151	529.0
3.584	429.394743165	524.0
3.5942	429.750550605	527.0
3.6045	430.109123705	552.0
3.6147	430.463501318	589.0
3.625	430.820633477	567.0
3.6352	431.173587008	624.0
3.6454	431.525834106	582.0
3.6557	431.88081919	624.0
3.6659	432.231650768	584.0
3.6762	432.585209329	602.0
3.6864	432.934631075	647.0
3.6966	433.283353457	627.0
3.7069	433.634786427	621.0
3.7171	433.982107453	673.0
3.7274	434.332128175	619.0
3.7376	434.678053477	696.0
3.7478	435.023286412	658.0
3.7581	435.371202812	720.0
3.7683	435.715048414	632.0
3.7786	436.061566698	710.0
3.7888	436.404030542	723.0
3.799	436.745808947	727.0
3.8093	437.090243965	731.0
3.8195	437.43064892	724.0
3.8298	437.773699812	742.0
3.84	438.112736834	731.0
3.8502	438.451095277	746.0
3.8605	438.79208375	720.0
3.8707	439.129082485	781.0
3.881	439.468700682	718.0
3.8912	439.804345173	807.0
3.9014	440.139317875	765.0
3.9117	440.47689429	775.0
3.9219	440.810520889	780.0
3.9322	441.146740739	734.0
3.9424	441.479026646	722.0
3.9526	441.810647486	796.0
3.9629	442.144845985	776.0
3.9731	442.475134192	793.0
3.9834	442.8079897	806.0
3.9936	443.13695063	748.0
4.0038	443.465253147	731.0
4.0141	443.796107531	776.0
4.0243	444.123090751	829.0
4.0346	444.452615583	782.0
4.0448	444.778284807	773.0
4.055	445.103302206	764.0
4.0653	445.430845938	732.0
4.0755	445.754557241	763.0
4.0858	446.080784724	778.0
4.096	446.40319518	765.0
4.1062	446.724960334	741.0
4.1165	447.04922654	724.0
4.1267	447.369698667	737.0
4.137	447.692661796	712.0
4.1472	448.011846092	720.0
4.1574	448.330391544	717.0
4.1677	448.651413021	771.0
4.1779	448.968678384	691.0
4.1882	449.288409823	708.0
4.1984	449.604400242	700.0
4.2086	449.919758208	710.0
4.2189	450.237567425	696.0
4.2291	450.551658112	676.0
4.2394	450.868190199	687.0
4.2496	451.181018699	683.0
4.2598	451.493221076	670.0
4.2701	451.807850174	630.0
4.2803	452.118797953	659.0
4.2906	452.432162701	699.0
4.3008	452.741860922	652.0
4.311	453.050939285	596.0
4.3213	453.362420088	672.0
4.3315	453.670256406	664.0
4.3418	453.980485509	662.0
4.352	454.287084775	652.0
4.3622	454.593070384	621.0
4.3725	454.901434393	615.0
4.3827	455.206190386	618.0
4.393	455.513315221	586.0
4.4032	455.81684654	590.0
4.4134	456.119770342	622.0
4.4237	456.425048746	576.0
4.4339	456.726755236	626.0
4.4442	457.030806865	655.0
4.4544	457.331300936	560.0
4.4646	457.63119357	608.0
4.4749	457.933417243	648.0
4.4851	458.232104746	601.0
4.4954	458.533113921	554.0
4.5056	458.830601135	615.0
4.5158	459.127492931	587.0
4.5261	459.426692442	615.0
4.5363	459.722391166	559.0
4.5466	460.02038833	617.0
4.5568	460.314898776	578.0
4.567	460.608819762	580.0
4.5773	460.90502537	613.0
4.5875	461.197765222	608.0
4.5978	461.492780515	575.0
4.608	461.78434398	624.0
4.6182	462.075323882	572.0
4.6285	462.368565546	631.0
4.6387	462.658376134	566.0
4.649	462.950439394	607.0
4.6592	463.239085365	657.0
4.6694	463.527153614	620.0
4.6797	463.817460992	634.0
4.6899	464.104371627	625.0
4.7002	464.393512392	593.0
4.7104	464.679270064	575.0
4.7206	464.964455794	556.0
4.7309	465.251858248	546.0
4.7411	465.535897948	592.0
4.7514	465.822145463	609.0
4.7616	466.105043737	609.0
4.7718	466.387375792	609.0
4.7821	466.671902389	563.0
4.7923	466.953099881	604.0
4.8026	467.236483097	619.0
4.8128	467.516550585	569.0
4.823	467.79605752	593.0
4.8333	468.077737038	648.0
4.8435	468.356120762	598.0
4.8538	468.636668339	585.0
4.864	468.913933367	642.0
4.8742	469.190643451	628.0
4.8845	469.469504379	608.0
4.8947	469.745102491	555.0
4.905	470.022842804	576.0
4.9152	470.297333415	594.0
4.9254	470.571274634	525.0
4.9357	470.847345175	563.0
4.9459	471.12018555	607.0
4.9562	471.39514669	632.0
4.9664	471.666890644	583.0
4.9766	471.938090706	556.0
4.9869	472.211398781	551.0
4.9971	472.481509014	558.0
5.0074	472.753718789	572.0
5.0176	473.022743572	586.0
5.0278	473.291229904	621.0
5.0381	473.561803157	543.0
5.0483	473.829210565	557.0
5.0586	474.098696508	540.0
5.0688	474.365029329	573.0
5.079	474.630829086	573.0
5.0893	474.898694882	543.0
5.0995	475.163426511	569.0
5.1098	475.430215877	555.0
5.12	475.693883672	546.0
5.1302	475.957023737	576.0
5.1405	476.222209168	574.0
5.1507	476.484291794	507.0
5.161	476.748411565	548.0
5.1712	477.009441001	529.0
5.1814	477.269947989	563.0
5.1917	477.532479875	548.0
5.2019	477.791940004	551.0
5.2122	478.053416894	539.0
5.2224	478.311834372	528.0
5.2326	478.56973463	521.0
5.2429	478.829639523	563.0
5.2531	479.086503398	531.0
5.2634	479.345363852	552.0
5.2736	479.601195508	539.0
5.2838	479.856515119	537.0
5.2941	480.113819307	485.0
5.3043	480.368112905	486.0
5.3146	480.624383106	522.0
5.3248	480.877654814	501.0
5.335	481.130419602	543.0
5.3453	481.385149108	512.0
5.3555	481.636898149	509.0
5.3658	481.890604014	523.0
5.376	482.141341392	464.0
5.3862	482.39157692	511.0
5.3965	482.643757507	513.0
5.4067	482.892987454	558.0
5.417	483.144154643	544.0
5.4272	483.392383048	533.0
5.4374	483.640114626	555.0
5.4477	483.8897718	467.0
5.4579	484.136507859	520.0
5.4682	484.385161775	491.0
5.4784	484.630906314	479.0
5.4886	484.876158997	432.0
5.4989	485.123318008	521.0
5.5091	485.367585134	516.0
5.5194	485.613750926	495.0
5.5296	485.857036453	495.0
5.5398	486.099835046	478.0
5.5501	486.344520892	514.0
5.5603	486.586343789	485.0
5.5706	486.830046354	523.0
5.5808	487.070897475	480.0
5.591	487.311266535	489.0
5.6013	487.553503963	519.0
5.6115	487.792907089	476.0
5.6218	488.034171075	491.0
5.632	488.27261215	484.0
5.6422	488.510575987	488.0
5.6525	488.750389497	482.0
5.6627	488.987397066	474.0
5.673	489.226246874	474.0
5.6832	489.462302019	502.0
5.6934	489.697884701	514.0
5.7037	489.935298546	461.0
5.7139	490.169934529	515.0
5.7242	490.406394317	471.0
5.7344	490.640087406	481.0
5.7446	490.873312759	489.0
5.7549	491.108350953	495.0
5.7651	491.340639081	483.0
5.7754	491.574732763	482.0
5.7856	491.806087431	517.0
5.7958	492.036979045	520.0
5.8061	492.269665359	428.0
5.8163	492.499629124	471.0
5.8266	492.731380378	532.0
5.8368	492.960420025	465.0
5.847	493.18900125	503.0
5.8573	493.419359218	486.0
5.8675	493.64702188	504.0
5.8778	493.876454145	524.0
5.888	494.103201935	489.0
5.8982	494.329495891	491.0
5.9085	494.557548811	541.0
5.9187	494.782933395	452.0
5.929	495.010069874	517.0
5.9392	495.234548742	487.0
5.9494	495.458578316	504.0
5.9597	495.684349253	537.0
5.9699	495.907478555	537.0
5.9802	496.132342221	514.0
5.9904	496.354574869	517.0
6.0006	496.57636272	511.0
6.0109	496.799874508	510.0
6.0211	497.020771095	488.0
6.0314	497.243384692	491.0
6.0416	497.463393596	497.0
6.0518	497.682962155	501.0
6.0621	497.904237401	517.0
6.0723	498.122923614	487.0
6.0826	498.343309655	495.0
6.0928	498.561117069	516.0
6.103	498.778488542	466.0
6.1133	498.997549625	460.0
6.1235	499.214047582	496.0
6.1338	499.432228359	445.0
6.144	499.64785631	473.0
6.1542	499.863052683	551.0
6.1645	500.079921758	473.0
6.1747	500.294253356	497.0
6.185	500.510250934	495.0
6.1952	500.723721231	463.0
6.2054	500.936764269	507.0
6.2157	501.151463272	472.0
6.2259	501.363650187	446.0
6.2362	501.577486413	497.0
6.2464	501.788820646	502.0
6.2566	501.999731895	465.0
6.2669	502.21228254	457.0
6.2771	502.422346233	446.0
6.2874	502.634042734	449.0
6.2976	502.843262278	452.0
6.3078	503.05206307	472.0
6.3181	503.262486853	428.0
6.3283	503.470448571	454.0
6.3386	503.680026757	464.0
6.3488	503.887152772	465.0
6.359	504.093864226	423.0
6.3693	504.30218243	426.0
6.3795	504.508063205	469.0
6.3898	504.715544274	400.0
6.4	504.920597708	407.0
6.4102	505.12524073	433.0
6.4205	505.331474424	393.0
6.4307	505.535295079	402.0
6.441	505.740700014	420.0
6.4512	505.943701607	419.0
6.4614	506.146296895	427.0
6.4717	506.350466937	367.0
6.4819	506.552248087	382.0
6.4922	506.755597663	410.0
6.5024	506.956567947	414.0
6.5126	507.15713599	382.0
6.5229	507.35926303	407.0
6.5331	507.559025082	403.0
6.5434	507.760339867	371.0
6.5536	507.959299166	355.0
6.5638	508.15786025	349.0
6.5741	508.357964732	349.0
6.5843	508.55572789	339.0
6.5946	508.755028244	350.0
6.6048	508.951996683	321.0
6.615	509.14857089	342.0
6.6253	509.346673052	312.0
6.6355	509.542457318	319.0
6.6458	509.739763398	343.0
6.656	509.934760896	313.0
6.6662	510.129368109	294.0
6.6765	510.325487986	301.0
6.6867	510.519313162	281.0
6.697	510.714644923	281.0
6.7072	510.907691204	290.0
6.7174	511.100351104	270.0
6.7277	511.294508532	278.0
6.7379	511.48639422	260.0
6.7482	511.679771419	239.0
6.7584	511.870886007	255.0
6.7686	512.06161808	250.0
6.7789	512.253832696	227.0
6.7891	512.443798304	257.0
6.7994	512.635240499	263.0
6.8096	512.824442722	232.0
6.8198	513.013266259	247.0
6.8301	513.203557504	222.0
6.8403	513.391622245	230.0
6.8506	513.581148797	168.0
6.8608	513.768457792	197.0
6.871	513.95539189	227.0
6.8813	514.14377901	205.0
6.8915	514.329961905	220.0
6.9018	514.517591984	205.0
6.912	514.703026695	208.0
6.9222	514.88809026	185.0
6.9325	515.074592308	161.0
6.9427	515.258912188	182.0
6.953	515.44466477	190.0
6.9632	515.628243952	169.0
6.9734	515.811455702	172.0
6.9837	515.996091541	147.0
6.9939	516.178567046	145.0
7.0042	516.362460918	173.0
7.0144	516.544203139	169.0
7.0246	516.725581603	140.0
7.0349	516.908369907	138.0
7.0451	517.089019494	153.0
7.0554	517.271073256	117.0
7.0656	517.450996895	115.0
7.0758	517.630560419	125.0
7.0861	517.811519675	113.0
7.0963	517.990361615	123.0
7.1066	518.170593678	121.0
7.1168	518.348716934	118.0
7.127	518.526483679	107.0
7.1373	518.705632188	110.0
7.1475	518.882684569	91.0
7.1578	519.061113163	94.0
7.168	519.237454051	104.0
7.1782	519.413441995	82.0
7.1885	519.590797877	96.0
7.1987	519.766078606	76.0
7.209	519.942721776	92.0
7.2192	520.117298132	91.0
7.2294	520.291525075	71.0
7.2397	520.467106268	79.0
7.2499	520.640633072	72.0
7.2602	520.815508685	73.0
7.2704	520.988338164	73.0
7.2806	521.160821727	56.0
7.2909	521.334645989	65.0
7.3011	521.506436419	82.0
7.3114	521.679562161	59.0
7.3216	521.850662244	48.0
7.3318	522.021419871	71.0
7.3421	522.193504783	55.0
7.3523	522.363576214	61.0
7.3626	522.534969595	56.0
7.3728	522.704357586	59.0
7.383	522.873406549	51.0
7.3933	523.043769515	46.0
7.4035	523.212139147	49.0
7.4138	523.381817502	47.0
7.424	523.549510534	47.0
7.4342	523.716867929	42.0
7.4445	523.885526179	43.0
7.4547	524.052211042	36.0
7.465	524.220191532	44.0
7.4752	524.386206565	31.0
7.4854	524.55188932	42.0
7.4957	524.718859912	43.0
7.5059	524.883876864	33.0
7.5162	525.050176478	48.0
7.5264	525.214530303	27.0
7.5366	525.378555174	20.0
7.5469	525.543854996	37.0
7.5571	525.707220727	21.0
7.5674	525.871856285	27.0
7.5776	526.034565523	33.0
7.5878	526.196949101	29.0
7.5981	526.360594871	21.0
7.6083	526.522325903	21.0
7.6186	526.685314056	34.0
7.6288	526.846395165	22.0
7.639	527.007153871	27.0
7.6493	527.169162141	33.0
7.6595	527.329274832	22.0
7.6698	527.490632065	18.0
7.68	527.650101336	25.0
7.6902	527.80925143	18.0
7.7005	527.969638585	22.0
7.7107	528.128149128	18.0
7.721	528.28789176	22.0
7.7312	528.445765322	19.0
7.7414	528.603322901	12.0
7.7517	528.762105162	17.0
7.7619	528.919029589	13.0
