TL-DOS Lehrstuhlversuch
detector=R1408103
job_number=2015-11-17-002
irradiation_dose [mSv]=0.05

[BEGIN DATA]
time [sec] 	 temperature [K] 	 photoncount 
0.0	126.411286428	0.0
0.0102	128.076173987	0.0
0.0205	129.751021449	1.0
0.0307	131.403331309	1.0
0.041	133.065525828	0.0
0.0512	134.70535301	2.0
0.0614	136.339004477	3.0
0.0717	137.982428982	1.0
0.0819	139.603738729	1.0
0.0922	141.234747682	1.0
0.1024	142.843808946	0.0
0.1126	144.446810363	0.0
0.1229	146.059401458	1.0
0.1331	147.650292706	2.0
0.1434	149.250701186	1.0
0.1536	150.829573753	3.0
0.1638	152.402500165	0.0
0.1741	153.984836338	0.0
0.1843	155.545879789	0.0
0.1946	157.116261912	1.0
0.2048	158.665512174	0.0
0.215	160.208927839	1.0
0.2253	161.761576723	2.0
0.2355	163.293332371	1.0
0.2458	164.834251484	0.0
0.256	166.354435203	1.0
0.2662	167.868893793	1.0
0.2765	169.392412371	0.0
0.2867	170.895429706	1.0
0.297	172.407438583	0.0
0.3072	173.899101097	0.0
0.3174	175.385145896	0.0
0.3277	176.880080701	0.0
0.3379	178.354898901	0.0
0.3482	179.838539947	0.0
0.3584	181.302216362	0.0
0.3686	182.76038046	0.0
0.3789	184.227267773	0.0
0.3891	185.674415902	0.0
0.3994	187.130221345	0.0
0.4096	188.566436727	0.0
0.4198	189.997243213	0.0
0.4301	191.436609251	0.0
0.4403	192.856606446	0.0
0.4506	194.285098529	0.0
0.4608	195.694368094	0.0
0.471	197.098330242	0.0
0.4813	198.510691351	0.0
0.4915	199.904047009	1.0
0.5018	201.305738176	0.0
0.512	202.688567473	0.0
0.5222	204.066188928	0.0
0.5325	205.452051766	0.0
0.5427	206.819265727	0.0
0.553	208.194658809	0.0
0.5632	209.551543901	1.0
0.5734	210.90331886	0.0
0.5837	212.263180579	0.0
0.5939	213.604743305	0.0
0.6042	214.954331698	0.0
0.6144	216.285759343	0.0
0.6246	217.612172728	0.0
0.6349	218.946521153	0.0
0.6451	220.262913905	0.0
0.6554	221.587181749	0.0
0.6656	222.89362957	0.0
0.6758	224.195157208	0.0
0.6861	225.504471011	0.0
0.6963	226.79616602	0.0
0.7066	228.095588371	0.0
0.7168	229.377525032	0.0
0.727	230.654633822	0.0
0.7373	231.939382694	0.0
0.7475	233.20684333	0.0
0.7578	234.481886331	0.0
0.768	235.739771704	0.0
0.7782	236.992919783	0.0
0.7885	238.253564605	0.0
0.7987	239.497245547	0.0
0.809	240.748366595	0.0
0.8192	241.982651921	0.0
0.8294	243.212288834	0.0
0.8397	244.449281837	0.0
0.8499	245.669629232	0.0
0.8602	246.897277144	0.0
0.8704	248.108405201	0.0
0.8806	249.314972055	0.0
0.8909	250.528756988	0.0
0.9011	251.726208612	0.0
0.9114	252.930823784	0.0
0.9216	254.119229039	0.0
0.9318	255.30315867	1.0
0.9421	256.494170955	0.0
0.9523	257.669156371	0.0
0.9626	258.851170935	0.0
0.9728	260.017279708	0.0
0.983	261.178996826	0.0
0.9933	262.347663716	0.0
1.0035	263.500604429	0.0
1.0138	264.66044241	0.0
1.024	265.804673021	2.0
1.0342	266.944594371	0.0
1.0445	268.091335103	0.0
1.0547	269.222644708	0.0
1.065	270.360722177	0.0
1.0752	271.483485095	0.0
1.0854	272.602019603	0.0
1.0957	273.727245549	0.0
1.1059	274.837329882	0.0
1.1162	275.954055103	0.0
1.1264	277.055753099	1.0
1.1366	278.153302017	0.0
1.1469	279.257416831	0.0
1.1571	280.346674114	0.0
1.1674	281.44244769	0.0
1.1776	282.523475978	0.0
1.1878	283.600433031	0.0
1.1981	284.683832793	0.0
1.2083	285.752653776	0.0
1.2186	286.827868796	0.0
1.2288	287.888615175	0.0
1.239	288.945366701	0.0
1.2493	290.008440061	0.0
1.2595	291.057208163	0.0
1.2698	292.11225034	0.0
1.28	293.153095331	0.0
1.2902	294.19002042	0.0
1.3005	295.233148735	0.0
1.3107	296.262240183	1.0
1.321	297.297487993	1.0
1.3312	298.318804981	0.0
1.3414	299.33627561	0.0
1.3517	300.359833082	1.0
1.3619	301.369617043	0.0
1.3722	302.385441862	0.0
1.3824	303.387597224	0.0
1.3926	304.385978393	1.0
1.4029	305.390332204	0.0
1.4131	306.381170918	1.0
1.4234	307.377937154	0.0
1.4336	308.361290396	0.0
1.4438	309.340940253	0.0
1.4541	310.326450697	0.0
1.4643	311.298699609	0.0
1.4746	312.276764833	1.0
1.4848	313.241668713	0.0
1.495	314.202938691	0.0
1.5053	315.1699593	0.0
1.5155	316.123967187	1.0
1.5258	317.083682261	1.0
1.536	318.03048292	0.0
1.5462	318.973717856	1.0
1.5565	319.922595531	0.0
1.5667	320.858704624	0.0
1.577	321.800413829	0.0
1.5872	322.729450914	1.0
1.5974	323.654989175	0.0
1.6077	324.586064308	1.0
1.6179	325.50461042	0.0
1.6282	326.428651575	2.0
1.6384	327.340258361	1.0
1.6486	328.248431967	3.0
1.6589	329.162038563	2.0
1.6691	330.063351204	0.0
1.6794	330.970055792	1.0
1.6896	331.864559301	0.0
1.6998	332.755694041	0.0
1.7101	333.652159841	0.0
1.7203	334.53656234	1.0
1.7306	335.426255624	3.0
1.7408	336.303976742	0.0
1.751	337.178392295	0.0
1.7613	338.058038888	0.0
1.7715	338.925848507	0.0
1.7818	339.798849648	0.0
1.792	340.660103241	1.0
1.8022	341.518113286	4.0
1.8125	342.381256229	2.0
1.8227	343.23278428	1.0
1.833	344.08940645	0.0
1.8432	344.934501476	2.0
1.8534	345.776413809	1.0
1.8637	346.623362737	1.0
1.8739	347.458914689	1.0
1.8842	348.299465186	1.0
1.8944	349.128704807	3.0
1.9046	349.954821448	2.0
1.9149	350.785880189	2.0
1.9251	351.60575578	2.0
1.9354	352.430536135	4.0
1.9456	353.244217826	1.0
1.9558	354.054835128	1.0
1.9661	354.870301809	0.0
1.9763	355.674795154	1.0
1.9866	356.484101242	1.0
1.9968	357.282516894	1.0
2.007	358.077925652	2.0
2.0173	358.878092805	1.0
2.0275	359.667492501	0.0
2.0378	360.461614645	4.0
2.048	361.245050676	6.0
2.0582	362.025536227	5.0
2.0685	362.810690898	2.0
2.0787	363.585280128	2.0
2.089	364.364503204	4.0
2.0992	365.133240657	4.0
2.1094	365.899082985	1.0
2.1197	366.669506833	3.0
2.1299	367.429563465	3.0
2.1402	368.194167005	9.0
2.1504	368.94848165	2.0
2.1606	369.699955487	3.0
2.1709	370.455924888	6.0
2.1811	371.201721578	3.0
2.1914	371.951979869	5.0
2.2016	372.692142301	6.0
2.2118	373.429517225	6.0
2.2221	374.171303367	9.0
2.2323	374.903107657	1.0
2.2426	375.639289839	8.0
2.2528	376.365565579	6.0
2.263	377.089106109	6.0
2.2733	377.816975094	5.0
2.2835	378.535049504	12.0
2.2938	379.25741967	5.0
2.304	379.970069254	9.0
2.3142	380.680034946	6.0
2.3245	381.394247885	2.0
2.3347	382.09885001	4.0
2.345	382.807667296	8.0
2.3552	383.506946375	6.0
2.3654	384.203591916	9.0
2.3757	384.904405018	0.0
2.3859	385.595787621	8.0
2.3962	386.291306302	5.0
2.4064	386.977465729	7.0
2.4166	387.661041027	10.0
2.4269	388.348705696	8.0
2.4371	389.027116798	7.0
2.4474	389.709586378	11.0
2.4576	390.3828723	5.0
2.4678	391.053622575	11.0
2.4781	391.728385497	8.0
2.4883	392.394068466	14.0
2.4986	393.063733768	10.0
2.5088	393.724387712	9.0
2.519	394.382553583	9.0
2.5293	395.044656818	11.0
2.5395	395.697850454	5.0
2.5498	396.354951708	14.0
2.56	397.003210673	12.0
2.5702	397.649028244	10.0
2.5805	398.298709308	8.0
2.5907	398.939647932	19.0
2.601	399.584420861	18.0
2.6112	400.220517396	8.0
2.6214	400.854218344	11.0
2.6317	401.491710297	15.0
2.6419	402.120623834	6.0
2.6522	402.753299738	14.0
2.6624	403.377462032	12.0
2.6726	403.999273683	15.0
2.6829	404.624805215	17.0
2.6931	405.241919275	9.0
2.7034	405.862725114	17.0
2.7136	406.475177074	8.0
2.7238	407.085322492	13.0
2.7341	407.699117999	13.0
2.7443	408.304653962	10.0
2.7546	408.913812438	4.0
2.7648	409.514773768	5.0
2.775	410.113471831	7.0
2.7853	410.715751502	9.0
2.7955	411.309926591	14.0
2.8058	411.907656229	3.0
2.816	412.497342513	8.0
2.8262	413.084807993	14.0
2.8365	413.675787884	7.0
2.8467	414.258815248	9.0
2.857	414.845330473	8.0
2.8672	415.42395325	10.0
2.8774	416.000396889	4.0
2.8877	416.580289002	2.0
2.8979	417.152377792	3.0
2.9082	417.727889004	2.0
2.9184	418.295655844	5.0
2.9286	418.86128443	4.0
2.9389	419.430296792	4.0
2.9491	419.991652233	2.0
2.9594	420.556365886	3.0
2.9696	421.113480465	5.0
2.9798	421.668496907	9.0
2.9901	422.226833639	11.0
3.0003	422.777657108	6.0
3.0106	423.331775783	9.0
3.0208	423.878437954	7.0
3.031	424.423041354	7.0
3.0413	424.970902749	9.0
3.0515	425.511391842	6.0
3.0618	426.055114318	4.0
3.072	426.591520188	9.0
3.0822	427.125905911	7.0
3.0925	427.663488505	9.0
3.1027	428.193837113	5.0
3.113	428.727358441	6.0
3.1232	429.253700433	13.0
3.1334	429.778060181	7.0
3.1437	430.305556821	8.0
3.1539	430.825955197	10.0
3.1642	431.349466766	9.0
3.1744	431.865933697	5.0
3.1846	432.380455574	7.0
3.1949	432.898055489	6.0
3.2051	433.408690315	4.0
3.2154	433.922379927	6.0
3.2256	434.429157069	8.0
3.2358	434.934025649	9.0
3.2461	435.441914519	9.0
3.2563	435.942968977	6.0
3.2666	436.447020907	9.0
3.2768	436.944290057	8.0
3.287	437.439686453	15.0
3.2973	437.938046473	9.0
3.3075	438.429700306	12.0
3.3178	438.924295373	10.0
3.328	439.412234917	2.0
3.3382	439.898336844	14.0
3.3485	440.387346791	10.0
3.3587	440.869776371	15.0
3.369	441.355092002	9.0
3.3792	441.833876979	19.0
3.3894	442.310858815	13.0
3.3997	442.790694113	9.0
3.4099	443.264072502	10.0
3.4202	443.740282796	13.0
3.4304	444.210084961	8.0
3.4406	444.678117815	6.0
3.4509	445.148950595	9.0
3.4611	445.613447609	7.0
3.4714	446.080723396	8.0
3.4816	446.541711282	12.0
3.4918	447.000963052	9.0
3.5021	447.462962217	16.0
3.5123	447.918744485	12.0
3.5226	448.377253392	7.0
3.5328	448.829592369	9.0
3.543	449.280227804	15.0
3.5533	449.733559086	11.0
3.5635	450.180790112	11.0
3.5738	450.630696621	9.0
3.584	451.074548958	8.0
3.5942	451.516729713	13.0
3.6045	451.961555738	7.0
3.6147	452.400395957	6.0
3.625	452.841861462	6.0
3.6352	453.277386383	10.0
3.6454	453.711271083	21.0
3.6557	454.147751423	10.0
3.6659	454.578358261	6.0
3.6762	455.01154113	7.0
3.6864	455.43889487	10.0
3.6966	455.864639163	13.0
3.7069	456.292930398	10.0
3.7171	456.715458327	11.0
3.7274	457.140513957	5.0
3.7376	457.559849821	3.0
3.7478	457.977606435	9.0
3.7581	458.397862205	15.0
3.7683	458.812462799	15.0
3.7786	459.22954367	19.0
3.7888	459.641012088	9.0
3.799	460.050930885	10.0
3.8093	460.463301949	7.0
3.8195	460.870123939	5.0
3.8298	461.279379671	10.0
3.84	461.683128249	6.0
3.8502	462.085356279	10.0
3.8605	462.489990568	8.0
3.8707	462.889179893	12.0
3.881	463.290757298	12.0
3.8912	463.686930874	6.0
3.9014	464.081612429	6.0
3.9117	464.478655098	6.0
3.9219	464.870354959	8.0
3.9322	465.264398097	6.0
3.9424	465.653138789	14.0
3.9526	466.040415454	12.0
3.9629	466.430008935	11.0
3.9731	466.814359848	12.0
3.9834	467.201010073	8.0
3.9936	467.582457336	12.0
4.0038	467.962468039	7.0
4.0141	468.34475209	7.0
4.0243	468.721891933	9.0
4.0346	469.101287949	12.0
4.0448	469.475578619	5.0
4.055	469.848459682	9.0
4.0653	470.223571441	12.0
4.0755	470.593635506	9.0
4.0858	470.965913415	10.0
4.096	471.333181762	11.0
4.1062	471.699066948	8.0
4.1165	472.06714098	6.0
4.1267	472.43026202	8.0
4.137	472.795555368	8.0
4.1472	473.155933143	7.0
4.1574	473.514953708	9.0
4.1677	473.876122052	7.0
4.1779	474.232430329	14.0
4.1882	474.59087016	7.0
4.1984	474.944486642	12.0
4.2086	475.296771377	9.0
4.2189	475.651163594	2.0
4.2291	476.000786929	10.0
4.2394	476.352501825	9.0
4.2496	476.699483867	14.0
4.2598	477.045159147	9.0
4.2701	477.39290237	11.0
4.2803	477.735966183	6.0
4.2906	478.081082316	13.0
4.3008	478.42155439	5.0
4.311	478.760744221	13.0
4.3213	479.101963195	5.0
4.3315	479.438590554	8.0
4.3418	479.777231727	10.0
4.352	480.111315973	7.0
4.3622	480.444142031	8.0
4.3725	480.778959164	4.0
4.3827	481.109270827	7.0
4.393	481.441558522	5.0
4.4032	481.769374784	9.0
4.4134	482.095956466	9.0
4.4237	482.424491866	5.0
4.4339	482.748606326	7.0
4.4442	483.074659745	10.0
4.4544	483.396325623	6.0
4.4646	483.716780082	9.0
4.4749	484.039151605	6.0
4.4851	484.357185132	4.0
4.4954	484.67712124	7.0
4.5056	484.992752125	5.0
4.5158	485.30719432	9.0
4.5261	485.62351761	5.0
4.5363	485.935584294	6.0
4.5466	486.249517862	5.0
4.5568	486.55922698	8.0
4.567	486.86776971	3.0
4.5773	487.178158243	8.0
4.5875	487.48437003	5.0
4.5978	487.792413677	7.0
4.608	488.096312131	5.0
4.6182	488.399066079	8.0
4.6285	488.703631202	5.0
4.6387	489.00409794	5.0
4.649	489.306362169	11.0
4.6592	489.604558977	8.0
4.6694	489.901632752	8.0
4.6797	490.20048372	8.0
4.6899	490.495313197	11.0
4.7002	490.791906441	2.0
4.7104	491.084508574	11.0
4.7206	491.376008746	8.0
4.7309	491.669252767	4.0
4.7411	491.958550747	5.0
4.7514	492.249579402	7.0
4.7616	492.536691827	5.0
4.7718	492.822722965	11.0
4.7821	493.110465234	6.0
4.7923	493.394335497	9.0
4.8026	493.679903965	10.0
4.8128	493.961629678	7.0
4.823	494.24229439	6.0
4.8333	494.52463813	4.0
4.8435	494.803182509	6.0
4.8538	495.083393232	2.0
4.864	495.359833297	4.0
4.8742	495.635232267	7.0
4.8845	495.912278763	7.0
4.8947	496.185597181	4.0
4.905	496.460550679	4.0
4.9152	496.731804263	5.0
4.9254	497.002036284	5.0
4.9357	497.273884923	11.0
4.9459	497.542075427	5.0
4.9562	497.811870335	8.0
4.9664	498.078034745	6.0
4.9766	498.343196759	3.0
4.9869	498.609945059	10.0
4.9971	498.873103858	8.0
5.0074	499.13783696	8.0
5.0176	499.399007677	4.0
5.0278	499.659194806	6.0
5.0381	499.920938459	7.0
5.0483	500.179159956	12.0
5.0586	500.438926219	10.0
5.0688	500.695196935	4.0
5.079	500.950502515	8.0
5.0893	501.207335417	7.0
5.0995	501.460712244	9.0
5.1098	501.715604855	5.0
5.12	501.9670675	3.0
5.1302	502.217583118	2.0
5.1405	502.469597403	3.0
5.1507	502.718220455	8.0
5.161	502.968330851	8.0
5.1712	503.215075634	5.0
5.1814	503.460891157	9.0
5.1917	503.70817723	3.0
5.2019	503.952135695	13.0
5.2122	504.197553599	10.0
5.2224	504.439669035	7.0
5.2326	504.680872645	8.0
5.2429	504.923519215	5.0
5.2531	505.162900608	5.0
5.2634	505.40371406	12.0
5.2736	505.641287003	7.0
5.2838	505.877965227	8.0
5.2941	506.116059339	5.0
5.3043	506.350949535	8.0
5.3146	506.587244921	7.0
5.3248	506.820360595	7.0
5.335	507.052598338	7.0
5.3453	507.286225404	2.0
5.3555	507.516708664	7.0
5.3658	507.748570751	6.0
5.376	507.977312783	2.0
5.3862	508.205193355	5.0
5.3965	508.434437184	3.0
5.4067	508.66059619	4.0
5.417	508.888108154	8.0
5.4272	509.112558601	9.0
5.4374	509.33616375	8.0
5.4477	509.561106578	5.0
5.4579	509.783022462	6.0
5.4682	510.006265918	3.0
5.4784	510.226505297	6.0
5.4886	510.445915237	3.0
5.4989	510.666637759	7.0
5.5091	510.884390127	6.0
5.5194	511.103445161	3.0
5.5296	511.319552478	6.0
5.5398	511.534845919	6.0
5.5501	511.751427315	4.0
5.5603	511.965094282	5.0
5.5706	512.180039474	8.0
5.5808	512.392092255	5.0
5.591	512.603346428	7.0
5.6013	512.815864393	5.0
5.6115	513.025522608	5.0
5.6218	513.236435067	4.0
5.632	513.44450938	1.0
5.6422	513.65180007	3.0
5.6525	513.86033084	5.0
5.6627	514.066055514	2.0
5.673	514.273010901	2.0
5.6832	514.47718139	7.0
5.6934	514.680582957	9.0
5.7037	514.885201339	2.0
5.7139	515.087066272	3.0
5.7242	515.290138827	4.0
5.7344	515.490478734	4.0
5.7446	515.690064146	1.0
5.7549	515.890843543	1.0
5.7651	516.08892115	5.0
5.7754	516.288183722	1.0
5.7856	516.484764916	3.0
5.7958	516.680605769	3.0
5.8061	516.877618207	3.0
5.8163	517.071979544	3.0
5.8266	517.267503615	3.0
5.8368	517.460396615	4.0
5.847	517.652563164	2.0
5.8573	517.845879317	2.0
5.8675	518.036594109	3.0
5.8778	518.228449819	2.0
5.888	518.417723822	1.0
5.8982	518.606285003	3.0
5.9085	518.79597422	3.0
5.9187	518.983110881	6.0
5.929	519.171367056	6.0
5.9392	519.357089959	5.0
5.9494	519.542113416	4.0
5.9597	519.728243743	1.0
5.9699	519.911869406	2.0
5.9802	520.096593578	0.0
5.9904	520.278832007	5.0
6.0006	520.460384112	5.0
6.0109	520.643022321	1.0
6.0211	520.823202858	4.0
6.0314	521.004461293	1.0
6.0416	521.183280623	2.0
6.0518	521.361426505	2.0
6.0621	521.540638114	0.0
6.0723	521.71743816	2.0
6.0826	521.895295882	1.0
6.0928	522.07076026	1.0
6.103	522.245563826	2.0
6.1133	522.421413124	1.0
6.1235	522.594896104	1.0
6.1338	522.769416916	0.0
6.144	522.941589287	0.0
6.1542	523.113113243	2.0
6.1645	523.285663312	1.0
6.1747	523.45589146	3.0
6.185	523.627137967	2.0
6.1952	523.796080095	1.0
6.2054	523.964385974	4.0
6.2157	524.133698713	0.0
6.2259	524.300733094	1.0
6.2362	524.468766729	4.0
6.2464	524.634539218	0.0
6.2566	524.799687395	1.0
6.2669	524.965823542	0.0
6.2771	525.129724077	2.0
6.2874	525.294605118	1.0
6.2976	525.457267436	0.0
6.3078	525.619317156	0.0
6.3181	525.782336309	2.0
6.3283	525.943161794	1.0
6.3386	526.10494939	2.0
6.3488	526.264559889	1.0
6.359	526.423569283	0.0
6.3693	526.583529923	0.0
6.3795	526.741338051	1.0
6.3898	526.900090239	0.0
6.4	527.056706177	2.0
6.4102	527.212732287	1.0
6.4205	527.369691796	0.0
6.4307	527.524539178	1.0
6.441	527.680312908	4.0
6.4512	527.833990467	4.0
6.4614	527.987089265	0.0
6.4717	528.14110395	0.0
6.4819	528.293046135	1.0
6.4922	528.445897287	0.0
6.5024	528.596691597	0.0
6.5126	528.746918003	1.0
6.5229	528.898043113	0.0
6.5331	529.047134607	0.0
6.5434	529.197118014	1.0
6.5536	529.345083169	1.0
6.5638	529.492491075	2.0
6.5741	529.640780824	2.0
6.5843	529.78707511	2.0
6.5946	529.934244577	0.0
6.6048	530.079433656	0.0
6.615	530.224075942	1.0
6.6253	530.369583526	3.0
6.6355	530.513133085	1.0
6.6458	530.657541405	1.0
6.656	530.800006492	1.0
6.6662	530.941935046	2.0
6.6765	531.084712662	0.0
6.6867	531.22556899	2.0
6.697	531.367267966	0.0
6.7072	531.507060169	2.0
6.7174	531.646325904	0.0
6.7277	531.786424772	3.0
6.7379	531.924638398	1.0
6.7482	532.063678864	3.0
6.7584	532.20084833	1.0
6.7686	532.337501205	0.0
6.7789	532.474971582	1.0
6.7891	532.610592088	1.0
6.7994	532.747023921	1.0
6.8096	532.881619857	1.0
6.8198	533.015708894	2.0
6.8301	533.150600096	0.0
6.8403	533.283676133	4.0
6.8506	533.417548274	2.0
6.8608	533.549618964	2.0
6.871	533.681192266	1.0
6.8813	533.813552681	1.0
6.8915	533.944131988	0.0
6.9018	534.075492463	1.0
6.912	534.205085284	1.0
6.9222	534.334190049	0.0
6.9325	534.464067161	0.0
6.9427	534.59219658	1.0
6.953	534.721092511	0.0
6.9632	534.848253953	0.0
6.9734	534.974936495	2.0
6.9837	535.102376894	0.0
6.9939	535.228102389	2.0
7.0042	535.354580016	0.0
7.0144	535.479355695	0.0
7.0246	535.60366146	0.0
7.0349	535.728710862	3.0
7.0451	535.852077536	0.0
7.0554	535.976182229	0.0
7.0656	536.098616907	1.0
7.0758	536.220590486	0.0
7.0861	536.343293751	0.0
7.0963	536.464345858	3.0
7.1066	536.586122139	3.0
7.1168	536.706259736	1.0
7.127	536.825944886	0.0
7.1373	536.946346031	1.0
7.1475	537.065126997	0.0
7.1578	537.18461855	1.0
7.168	537.302502163	3.0
7.1782	537.419941818	0.0
7.1885	537.538084035	3.0
7.1987	537.65463647	0.0
7.209	537.771886161	0.0
7.2192	537.887558079	1.0
7.2294	538.002794368	0.0
7.2397	538.118720039	1.0
7.2499	538.233085754	1.0
7.2602	538.348135643	0.0
7.2704	538.461637361	0.0
7.2806	538.574711624	1.0
7.2909	538.688462333	0.0
7.3011	538.800682356	0.0
7.3114	538.913573715	4.0
7.3216	539.02494595	1.0
7.3318	539.135898749	2.0
7.3421	539.247515304	0.0
7.3523	539.35762989	0.0
7.3626	539.468403217	1.0
7.3728	539.577685922	1.0
7.383	539.68655706	0.0
7.3933	539.7960795	1.0
7.4035	539.904128151	1.0
7.4138	540.012823184	1.0
7.424	540.120055562	0.0
7.4342	540.226884094	0.0
7.4445	540.334351709	0.0
7.4547	540.440373185	0.0
7.465	540.547028917	3.0
7.4752	540.652249434	2.0
7.4854	540.757073683	0.0
7.4957	540.862525025	0.0
7.5059	540.96655736	0.0
7.5162	541.071212051	0.0
7.5264	541.174458454	1.0
7.5366	541.277316024	1.0
7.5469	541.380788921	2.0
7.5571	541.482869435	1.0
7.5674	541.585560627	0.0
7.5776	541.686869954	0.0
7.5878	541.787797743	3.0
7.5981	541.889329314	0.0
7.6083	541.989494625	0.0
7.6186	542.090259158	2.0
7.6288	542.189667752	1.0
7.639	542.288701965	0.0
7.6493	542.388328634	0.0
7.6595	542.486614675	0.0
7.6698	542.585488696	2.0
7.68	542.683032217	0.0
7.6902	542.780208382	1.0
7.7005	542.877965887	1.0
7.7107	542.974407916	2.0
7.721	543.071426894	0.0
7.7312	543.167140335	2.0
7.7414	543.262493311	0.0
7.7517	543.35841672	1.0
7.7619	543.453049335	2.0
7.7722	543.548248074	0.0
7.7824	543.642165769	0.0
7.7926	543.735729763	2.0
7.8029	543.829853488	0.0
7.8131	543.922710636	0.0
7.8234	544.016123286	1.0
7.8336	544.108278927	0.0
7.8438	544.200087503	0.0
7.8541	544.292445309	1.0
7.8643	544.3835603	1.0
7.8746	544.475220371	2.0
7.8848	544.565647018	1.0
7.895	544.655733111	0.0
7.9053	544.746358128	1.0
7.9155	544.835763649	1.0
7.9258	544.925704023	2.0
7.936	545.014434114	2.0
7.9462	545.10283004	1.0
7.9565	545.191754779	0.0
7.9667	545.279482902	0.0
7.977	545.367735843	0.0
7.9872	545.454801208	1.0
7.9974	545.541538678	0.0
8.0077	545.62879504	0.0
8.0179	545.714877235	1.0
8.0282	545.801474403	0.0
8.0384	545.886906275	0.0
8.0486	545.972016404	0.0
8.0589	546.057635689	1.0
8.0691	546.142102838	0.0
8.0794	546.227075297	0.0
8.0896	546.310904323	1.0
8.0998	546.394417643	0.0
8.1101	546.478430567	1.0
8.1203	546.56131297	1.0
8.1306	546.644691203	1.0
8.1408	546.726947455	0.0
8.151	546.808893924	0.0
