TL-DOS Lehrstuhlversuch
detector=R1406806
job_number=2015-10-22-008
irradiation_dose [mSv]=3.0

[BEGIN DATA]
time [sec] 	 temperature [K] 	 photoncount 
0.0	135.947336246	0.0
0.0102	137.643417528	0.0
0.0205	139.349083058	2.0
0.0307	141.031241759	4.0
0.041	142.722906034	1.0
0.0512	144.391256439	0.0
0.0614	146.052778664	2.0
0.0717	147.723689849	1.0
0.0819	149.371573176	2.0
0.0922	151.028768394	2.0
0.1024	152.663124781	1.0
0.1126	154.290792117	2.0
0.1229	155.927657106	5.0
0.1331	157.541963449	1.0
0.1434	159.165391945	0.0
0.1536	160.76644697	3.0
0.1638	162.36094924	1.0
0.1741	163.964461752	1.0
0.1843	165.545875269	0.0
0.1946	167.136225067	2.0
0.2048	168.704657274	2.0
0.215	170.266670242	1.0
0.2253	171.837509862	1.0
0.2355	173.386700772	3.0
0.2458	174.944645879	0.0
0.256	176.481119983	1.0
0.2662	178.011305646	0.0
0.2765	179.550138111	0.0
0.2867	181.067762976	0.0
0.297	182.593963664	0.0
0.3072	184.099130839	0.0
0.3174	185.598137705	0.0
0.3277	187.105615186	0.0
0.3379	188.592317191	0.0
0.3482	190.087420279	0.0
0.3584	191.561918429	1.0
0.3686	193.030381791	0.0
0.3789	194.507143173	0.0
0.3891	195.963552396	0.0
0.3994	197.428191523	0.0
0.4096	198.872645555	0.0
0.4198	200.311187762	0.0
0.4301	201.757858911	0.0
0.4403	203.184592592	0.0
0.4506	204.619388487	0.0
0.4608	206.034410574	0.0
0.471	207.443641296	0.0
0.4813	208.860835325	0.0
0.4915	210.258498128	0.0
0.5018	211.664058871	0.0
0.512	213.050248714	0.0
0.5222	214.430765195	1.0
0.5325	215.819082724	0.0
0.5427	217.188266993	0.0
0.553	218.565188274	0.0
0.5632	219.923133354	0.0
0.5734	221.275520671	0.0
0.5837	222.635550084	0.0
0.5939	223.976836092	0.0
0.6042	225.325701464	0.0
0.6144	226.65597729	0.0
0.6246	227.980808599	0.0
0.6349	229.313126288	0.0
0.6451	230.627082485	0.0
0.6554	231.948463611	0.0
0.6656	233.251633968	0.0
0.6758	234.549470744	0.0
0.6861	235.854641359	0.0
0.6963	237.141824613	0.0
0.7066	238.436281507	0.0
0.7168	239.712898691	0.0
0.727	240.98429097	0.0
0.7373	242.262867656	0.0
0.7475	243.523823487	0.0
0.7578	244.791904752	0.0
0.768	246.042509806	0.0
0.7782	247.287996417	0.0
0.7885	248.540521046	0.0
0.7987	249.775783861	0.0
0.809	251.018026922	0.0
0.8192	252.243149865	0.0
0.8294	253.463258656	1.0
0.8397	254.690262061	0.0
0.8499	255.900355375	0.0
0.8602	257.117286707	0.0
0.8704	258.317446758	0.0
0.8806	259.512694825	1.0
0.8909	260.714697022	0.0
0.9011	261.900133685	0.0
0.9114	263.092269035	0.0
0.9216	264.267974833	0.0
0.9318	265.438868733	0.0
0.9421	266.616379142	2.0
0.9523	267.777661553	0.0
0.9626	268.945506161	0.0
0.9728	270.097255982	1.0
0.983	271.244291951	0.0
0.9933	272.397809612	0.0
1.0035	273.535429935	1.0
1.0138	274.679478743	0.0
1.024	275.80776071	1.0
1.0342	276.931424873	0.0
1.0445	278.061438659	1.0
1.0547	279.175879027	0.0
1.065	280.296616896	0.0
1.0752	281.401909186	1.0
1.0854	282.502677763	2.0
1.0957	283.609666584	0.0
1.1059	284.701399309	0.0
1.1162	285.799301218	0.0
1.1264	286.882072264	2.0
1.1366	287.960411772	0.0
1.1469	289.044844781	1.0
1.1571	290.11433255	0.0
1.1674	291.1898638	0.0
1.1776	292.25057249	0.0
1.1878	293.30693994	1.0
1.1981	294.36927673	2.0
1.2083	295.416972802	0.0
1.2186	296.470589215	2.0
1.2288	297.509685089	2.0
1.239	298.544528179	0.0
1.2493	299.58521898	1.0
1.2595	300.611567378	0.0
1.2698	301.643715485	0.0
1.28	302.661638923	3.0
1.2902	303.67539623	1.0
1.3005	304.694882095	1.0
1.3107	305.700317797	1.0
1.321	306.711435034	1.0
1.3312	307.70861744	1.0
1.3414	308.701718604	2.0
1.3517	309.700431603	1.0
1.3619	310.685380722	3.0
1.3722	311.675895609	1.0
1.3824	312.6527596	1.0
1.3926	313.625625507	3.0
1.4029	314.603988903	3.0
1.4131	315.56886887	2.0
1.4234	316.539201198	2.0
1.4336	317.496160778	4.0
1.4438	318.449203738	2.0
1.4541	319.407632171	3.0
1.4643	320.352851911	4.0
1.4746	321.303412917	6.0
1.4848	322.240873654	1.0
1.495	323.174497577	3.0
1.5053	324.113397239	3.0
1.5155	325.039357345	1.0
1.5258	325.970549885	0.0
1.536	326.888909085	6.0
1.5462	327.803509649	5.0
1.5565	328.723278455	4.0
1.5667	329.630371359	12.0
1.577	330.542590081	5.0
1.5872	331.442236954	9.0
1.5974	332.338201775	9.0
1.6077	333.239229531	9.0
1.6179	334.127839668	6.0
1.6282	335.02147118	11.0
1.6384	335.902787004	10.0
1.6486	336.780495802	11.0
1.6589	337.663164373	11.0
1.6691	338.533668344	18.0
1.6794	339.409091375	12.0
1.6896	340.272449662	11.0
1.6998	341.132274418	12.0
1.7101	341.996957887	12.0
1.7203	342.84972462	17.0
1.7306	343.707310184	14.0
1.7408	344.553076832	23.0
1.751	345.395381948	19.0
1.7613	346.242446777	19.0
1.7715	347.077837684	18.0
1.7818	347.917949233	26.0
1.792	348.746482686	20.0
1.8022	349.571625139	19.0
1.8125	350.401430323	25.0
1.8227	351.219799449	22.0
1.833	352.042793031	29.0
1.8432	352.854444431	22.0
1.8534	353.662773925	24.0
1.8637	354.475671142	33.0
1.8739	355.277365322	30.0
1.8842	356.083589729	41.0
1.8944	356.878703061	41.0
1.9046	357.670562174	41.0
1.9149	358.466895938	50.0
1.9251	359.252254936	47.0
1.9354	360.042051855	44.0
1.9456	360.820964096	55.0
1.9558	361.596688425	61.0
1.9661	362.376796231	66.0
1.9763	363.146152891	61.0
1.9866	363.919857045	60.0
1.9968	364.682898305	67.0
2.007	365.44281661	70.0
2.0173	366.207029075	64.0
2.0275	366.960709456	79.0
2.0378	367.718648749	89.0
2.048	368.466142413	104.0
2.0582	369.210576754	87.0
2.0685	369.959217759	109.0
2.0787	370.69754128	104.0
2.089	371.440036934	101.0
2.0992	372.172299797	123.0
2.1094	372.901565673	110.0
2.1197	373.634952499	152.0
2.1299	374.358232068	145.0
2.1402	375.085598759	126.0
2.1504	375.802941161	154.0
2.1606	376.517347642	169.0
2.1709	377.235791105	173.0
2.1811	377.944333256	166.0
2.1914	378.656879249	173.0
2.2016	379.359605207	184.0
2.2118	380.059455066	200.0
2.2221	380.76325965	238.0
2.2323	381.457364669	211.0
2.2426	382.155391949	242.0
2.2528	382.843799285	238.0
2.263	383.529389125	280.0
2.2733	384.218853109	256.0
2.2835	384.898815164	274.0
2.2938	385.582619561	305.0
2.304	386.257000029	278.0
2.3142	386.928620409	298.0
2.3245	387.604035995	327.0
2.3347	388.270143261	331.0
2.345	388.940014579	383.0
2.3552	389.600653987	379.0
2.3654	390.258589548	375.0
2.3757	390.920242982	385.0
2.3859	391.572777763	415.0
2.3962	392.228999899	404.0
2.4064	392.876178234	459.0
2.4166	393.520707813	403.0
2.4269	394.168879513	415.0
2.4371	394.808118358	424.0
2.4474	395.450969426	468.0
2.4576	396.084960967	449.0
2.4678	396.716357724	479.0
2.4781	397.351322389	493.0
2.4883	397.977536215	497.0
2.4986	398.607288661	479.0
2.5088	399.2283621	530.0
2.519	399.846893626	511.0
2.5293	400.468920362	540.0
2.5395	401.082374563	507.0
2.5498	401.699295283	546.0
2.56	402.307713838	565.0
2.5702	402.913642273	521.0
2.5805	403.5229947	602.0
2.5907	404.123949265	536.0
2.601	404.728299716	530.0
2.6112	405.32432124	529.0
2.6214	405.917903383	560.0
2.6317	406.51483975	464.0
2.6419	407.10354937	539.0
2.6522	407.69558568	527.0
2.6624	408.279462773	528.0
2.6726	408.860950189	491.0
2.6829	409.445723485	475.0
2.6931	410.02243766	486.0
2.7034	410.602410741	484.0
2.7136	411.174390856	466.0
2.7238	411.744029985	444.0
2.7341	412.316888042	427.0
2.7443	412.881851189	435.0
2.7546	413.450006839	445.0
2.7648	414.010332387	392.0
2.775	414.568364648	368.0
2.7853	415.129550249	373.0
2.7955	415.683001804	354.0
2.8058	416.239580814	348.0
2.816	416.788489266	351.0
2.8262	417.335151159	280.0
2.8365	417.884902139	306.0
2.8467	418.427076662	332.0
2.857	418.972314914	320.0
2.8672	419.510038902	318.0
2.8774	420.045562107	298.0
2.8877	420.584111457	276.0
2.8979	421.115238726	259.0
2.9082	421.649367299	298.0
2.9184	422.176134716	267.0
2.9286	422.700746194	252.0
2.9389	423.228322155	271.0
2.9491	423.748627267	284.0
2.9594	424.271872529	265.0
2.9696	424.787906625	291.0
2.9798	425.30182871	262.0
2.9901	425.818654876	291.0
3.0003	426.328358341	294.0
3.0106	426.840942048	294.0
3.0208	427.346461523	298.0
3.031	427.849912021	331.0
3.0413	428.356207426	315.0
3.0515	428.855525262	297.0
3.0618	429.357664653	311.0
3.072	429.852883751	363.0
3.0822	430.346076029	320.0
3.0925	430.842055247	345.0
3.1027	431.331199069	331.0
3.113	431.823106955	384.0
3.1232	432.308235554	356.0
3.1334	432.791378632	373.0
3.1437	433.277251864	388.0
3.1539	433.756428977	414.0
3.1642	434.238313833	405.0
3.1744	434.713557536	413.0
3.1846	435.186856175	384.0
3.1949	435.662829338	420.0
3.2051	436.132242821	386.0
3.2154	436.604308875	406.0
3.2256	437.069869095	436.0
3.2358	437.533523883	486.0
3.2461	437.999798699	460.0
3.2563	438.459647495	440.0
3.2666	438.922094813	474.0
3.2768	439.378168859	502.0
3.287	439.832376297	444.0
3.2973	440.289150379	518.0
3.3075	440.739629376	543.0
3.3178	441.192653947	519.0
3.328	441.639435108	533.0
3.3382	442.084387694	546.0
3.3485	442.531854627	523.0
3.3587	442.973154741	551.0
3.369	443.416948563	547.0
3.3792	443.854626188	526.0
3.3894	444.290512498	525.0
3.3997	444.728861922	510.0
3.4099	445.161170182	533.0
3.4202	445.595921338	553.0
3.4304	446.02468092	529.0
3.4406	446.451685686	585.0
3.4509	446.881103378	559.0
3.4611	447.304603001	524.0
3.4714	447.730495742	531.0
3.4816	448.150518994	545.0
3.4918	448.568823184	574.0
3.5021	448.989491136	553.0
3.5123	449.404361604	490.0
3.5226	449.821576429	544.0
3.5328	450.23304136	526.0
3.543	450.642822257	521.0
3.5533	451.054918752	537.0
3.5635	451.461335891	560.0
3.5738	451.870049619	480.0
3.584	452.273130612	508.0
3.5942	452.674561885	511.0
3.6045	453.078261573	529.0
3.6147	453.476397627	484.0
3.625	453.876783475	521.0
3.6352	454.271651359	491.0
3.6454	454.664903138	475.0
3.6557	455.060377112	487.0
3.6659	455.450400815	445.0
3.6762	455.842628471	480.0
3.6864	456.229450595	435.0
3.6966	456.614689545	475.0
3.7069	457.002105409	458.0
3.7171	457.384182057	538.0
3.7274	457.76841775	472.0
3.7376	458.147358054	481.0
3.7478	458.524747442	462.0
3.7581	458.904269388	469.0
3.7683	459.278560908	439.0
3.7786	459.654967482	455.0
3.7888	460.026186564	437.0
3.799	460.395886331	410.0
3.8093	460.767675204	429.0
3.8195	461.134340225	459.0
3.8298	461.503077203	426.0
3.84	461.86673239	393.0
3.8502	462.228899219	418.0
3.8605	462.593112586	458.0
3.8707	462.952306504	429.0
3.881	463.313530162	413.0
3.8912	463.669775574	433.0
3.9014	464.024562954	412.0
3.9117	464.381355174	441.0
3.9219	464.733230219	426.0
3.9322	465.087093647	430.0
3.9424	465.436080264	433.0
3.9526	465.783638558	454.0
3.9629	466.133160841	430.0
3.9731	466.477866141	444.0
3.9834	466.824519309	444.0
3.9936	467.166395036	405.0
4.0038	467.506871542	439.0
4.0141	467.84927202	442.0
4.0243	468.186953665	460.0
4.0346	468.526543488	419.0
4.0448	468.861453214	406.0
4.055	469.194992231	430.0
4.0653	469.530416015	434.0
4.0755	469.861217118	429.0
4.0858	470.193887518	461.0
4.096	470.521973182	435.0
4.1062	470.848716065	487.0
4.1165	471.177305313	410.0
4.1267	471.50136607	461.0
4.137	471.827258036	408.0
4.1472	472.148658683	451.0
4.1574	472.46874391	459.0
4.1677	472.790637881	431.0
4.1779	473.108095632	424.0
4.1882	473.427347279	422.0
4.1984	473.742199123	446.0
4.2086	474.055762349	441.0
4.2189	474.371097464	415.0
4.2291	474.682086751	453.0
4.2394	474.994833382	442.0
4.2496	475.303269859	378.0
4.2598	475.610443976	400.0
4.2701	475.919353877	426.0
4.2803	476.224006501	433.0
4.2906	476.530380661	408.0
4.3008	476.83253249	440.0
4.311	477.13344768	386.0
4.3213	477.436063286	445.0
4.3315	477.734508361	465.0
4.3418	478.034639895	443.0
4.352	478.33063513	399.0
4.3622	478.625418925	417.0
4.3725	478.921868488	439.0
4.3827	479.214232498	425.0
4.393	479.508248604	430.0
4.4032	479.798212692	420.0
4.4134	480.086990023	438.0
4.4237	480.377399182	417.0
4.4339	480.663806033	408.0
4.4442	480.951831317	423.0
4.4544	481.235887148	434.0
4.4646	481.518780402	413.0
4.4749	481.803272234	422.0
4.4851	482.083843309	402.0
4.4954	482.365999841	364.0
4.5056	482.644267799	396.0
4.5158	482.921396869	416.0
4.5261	483.200091945	419.0
4.5363	483.474946153	377.0
4.5466	483.751353512	380.0
4.5568	484.02395153	383.0
4.567	484.295433867	384.0
4.5773	484.5684503	407.0
4.5875	484.837704126	385.0
4.5978	485.108479457	394.0
4.608	485.375523065	366.0
4.6182	485.641473725	380.0
4.6285	485.908927223	398.0
4.6387	486.17269478	381.0
4.649	486.43795284	382.0
4.6592	486.699555214	354.0
4.6694	486.960086909	378.0
4.6797	487.222090821	365.0
4.6899	487.480483896	403.0
4.7002	487.740337103	354.0
4.7104	487.996609113	399.0
4.7206	488.25183226	347.0
4.7309	488.508497626	363.0
4.7411	488.761625728	349.0
4.7514	489.016184212	350.0
4.7616	489.267234468	349.0
4.7718	489.517257232	342.0
4.7821	489.768692829	360.0
4.7923	490.016663237	348.0
4.8026	490.266034881	392.0
4.8128	490.511969781	348.0
4.823	490.756898124	336.0
4.8333	491.003210513	361.0
4.8435	491.24612832	386.0
4.8538	491.49041881	355.0
4.864	491.731342583	355.0
4.8742	491.971280309	374.0
4.8845	492.21257388	315.0
4.8947	492.450542035	346.0
4.905	492.689854905	395.0
4.9152	492.925869657	376.0
4.9254	493.160918454	375.0
4.9357	493.397295468	360.0
4.9459	493.630414826	361.0
4.9562	493.864851498	369.0
4.9664	494.096057254	365.0
4.9766	494.326316738	369.0
4.9869	494.557877376	329.0
4.9971	494.786246733	369.0
5.0074	495.015906565	362.0
5.0176	495.242401313	375.0
5.0278	495.467969069	337.0
5.0381	495.694811467	361.0
5.0483	495.918527611	397.0
5.0586	496.143507934	365.0
5.0688	496.365387664	376.0
5.079	496.586359291	395.0
5.0893	496.808579588	414.0
5.0995	497.02773733	380.0
5.1098	497.248133493	347.0
5.12	497.46549224	382.0
5.1302	497.681961387	384.0
5.1405	497.899653762	383.0
5.1507	498.114345984	376.0
5.161	498.330251393	350.0
5.1712	498.543181277	337.0
5.1814	498.755239686	364.0
5.1917	498.968496399	348.0
5.2019	499.17881409	354.0
5.2122	499.390320247	320.0
5.2224	499.598911508	332.0
5.2326	499.806649052	336.0
5.2429	500.015560484	376.0
5.2531	500.221592778	360.0
5.2634	500.428789323	414.0
5.2736	500.633130364	349.0
5.2838	500.836635084	357.0
5.2941	501.041289772	364.0
5.3043	501.243123988	385.0
5.3146	501.446098732	343.0
5.3248	501.646276156	337.0
5.335	501.845634299	345.0
5.3453	502.046118979	309.0
5.3555	502.243840656	338.0
5.3658	502.442679622	301.0
5.376	502.638778266	338.0
5.3862	502.834074322	351.0
5.3965	503.030473961	305.0
5.4067	503.224166895	318.0
5.417	503.418954353	289.0
5.4272	503.611057325	308.0
5.4374	503.802374062	320.0
5.4477	503.994771896	279.0
5.4579	504.184518177	272.0
5.4682	504.375336679	285.0
5.4784	504.563525394	286.0
5.4886	504.750943895	301.0
5.4989	504.939421464	293.0
5.5091	505.125301508	271.0
5.5194	505.312231926	262.0
5.5296	505.49658614	277.0
5.5398	505.680185834	230.0
5.5501	505.864823017	262.0
5.5603	506.046915601	236.0
5.5706	506.230037157	269.0
5.5808	506.410635002	254.0
5.591	506.590493701	248.0
5.6013	506.771368748	225.0
5.6115	506.949751045	226.0
5.6218	507.129141348	212.0
5.632	507.306059363	234.0
5.6422	507.482253292	196.0
5.6525	507.659442861	201.0
5.6627	507.834190472	189.0
5.673	508.009925549	171.0
5.6832	508.183238713	201.0
5.6934	508.355842545	181.0
5.7037	508.52942173	176.0
5.7139	508.700608714	163.0
5.7242	508.872763044	149.0
5.7344	509.042544809	148.0
5.7446	509.211631695	173.0
5.7549	509.381674061	150.0
5.7651	509.549372968	145.0
5.7754	509.718019511	146.0
5.7856	509.884341833	133.0
5.7958	510.049983434	143.0
5.8061	510.216561046	125.0
5.8163	510.38084295	123.0
5.8266	510.54605318	116.0
5.8368	510.708986547	105.0
5.847	510.871253064	97.0
5.8573	511.034436519	109.0
5.8675	511.195371043	126.0
5.8778	511.357214979	99.0
5.888	511.516828443	96.0
5.8982	511.675788646	96.0
5.9085	511.835647104	94.0
5.9187	511.993302454	102.0
5.929	512.151848685	91.0
5.9392	512.308209894	86.0
5.9494	512.463931151	90.0
5.9597	512.620532361	78.0
5.9699	512.774975352	80.0
5.9802	512.930291074	81.0
5.9904	513.083466293	75.0
6.0006	513.236014601	52.0
6.0109	513.389424932	64.0
6.0211	513.54072102	72.0
6.0314	513.692872055	53.0
6.0416	513.842926203	63.0
6.0518	513.992366213	62.0
6.0621	514.142650681	53.0
6.0723	514.290863987	53.0
6.0826	514.439914819	46.0
6.0928	514.586911489	37.0
6.103	514.733306536	45.0
6.1133	514.880528834	34.0
6.1235	515.025722171	40.0
6.1338	515.171735969	32.0
6.144	515.315737461	36.0
6.1542	515.459149587	37.0
6.1645	515.603372109	38.0
6.1747	515.745607012	28.0
6.185	515.888645658	43.0
6.1952	516.029713001	32.0
6.2054	516.170202987	29.0
6.2157	516.311486856	22.0
6.2259	516.450823605	31.0
6.2362	516.59094772	19.0
6.2464	516.729140699	24.0
6.2566	516.866768086	32.0
6.2669	517.005173179	29.0
6.2771	517.141670827	20.0
6.2874	517.278939798	21.0
6.2976	517.414316981	24.0
6.3078	517.549140095	19.0
6.3181	517.68472507	20.0
6.3283	517.818441466	20.0
6.3386	517.952913468	15.0
6.3488	518.085532229	15.0
6.359	518.217608211	20.0
6.3693	518.35043053	12.0
6.3795	518.481422344	18.0
6.3898	518.613154368	15.0
6.4	518.743070912	20.0
6.4102	518.872455737	12.0
6.4205	519.002571692	12.0
6.4307	519.130894438	11.0
6.441	519.259942314	12.0
6.4512	519.387211701	15.0
6.4614	519.513960203	13.0
6.4717	519.641424938	7.0
6.4819	519.767133003	10.0
6.4922	519.893551421	9.0
6.5024	520.018227589	14.0
6.5126	520.142393485	13.0
6.5229	520.267261021	11.0
6.5331	520.39040768	10.0
6.5434	520.514250219	10.0
6.5536	520.636386007	6.0
6.5638	520.758021921	5.0
6.5741	520.880345177	7.0
6.5843	521.000982621	10.0
6.5946	521.122301766	10.0
6.6048	521.241948936	10.0
6.615	521.361106418	5.0
6.6253	521.480937237	8.0
6.6355	521.599116593	4.0
6.6458	521.71796376	10.0
6.656	521.835173021	5.0
6.6662	521.95190257	8.0
6.6765	522.069291737	5.0
6.6867	522.185063092	6.0
6.697	522.301488649	4.0
6.7072	522.416309674	4.0
6.7174	522.530660762	7.0
6.7277	522.645658028	6.0
6.7379	522.759070446	5.0
6.7482	522.873123736	3.0
6.7584	522.985605188	7.0
6.7686	523.097626278	7.0
6.7789	523.21028038	9.0
6.7891	523.321381926	3.0
6.7994	523.433111286	4.0
6.8096	523.543300835	1.0
6.8198	523.653039404	3.0
6.8301	523.763398085	4.0
6.8403	523.872235845	14.0
6.8506	523.981688627	2.0
6.8608	524.089632973	7.0
6.871	524.197135527	2.0
6.8813	524.305245559	4.0
6.8915	524.41186566	3.0
6.9018	524.519088251	5.0
6.912	524.624833142	5.0
6.9222	524.730145243	5.0
6.9325	524.836052443	3.0
6.9427	524.940500071	3.0
6.953	525.045537914	4.0
6.9632	525.149128165	2.0
6.9734	525.252294445	2.0
6.9837	525.356043699	4.0
6.9939	525.45836312	1.0
7.0042	525.56126073	1.0
7.0144	525.662740244	4.0
7.0246	525.763804426	4.0
7.0349	525.865439703	3.0
7.0451	525.965674281	5.0
7.0554	526.066475267	3.0
7.0656	526.165887053	5.0
7.0758	526.264891968	2.0
7.0861	526.364456342	3.0
7.0963	526.462648559	3.0
7.1066	526.561395641	6.0
7.1168	526.658781829	1.0
7.127	526.755769438	1.0
7.1373	526.853305106	5.0
7.1475	526.949496574	0.0
7.1578	527.046231603	1.0
7.168	527.141633467	1.0
7.1782	527.236644873	3.0
7.1885	527.332193171	3.0
7.1987	527.426424659	4.0
7.209	527.521188632	5.0
7.2192	527.614646604	2.0
7.2294	527.707722074	10.0
7.2397	527.801323497	4.0
7.2499	527.89363494	2.0
7.2602	527.986468019	2.0
7.2704	528.078021708	2.0
7.2806	528.169200688	1.0
7.2909	528.260894904	2.0
7.3011	528.351325426	2.0
7.3114	528.442266954	1.0
7.3216	528.531955161	0.0
7.3318	528.621276294	3.0
7.3421	528.711102165	1.0
7.3523	528.79969009	6.0
7.3626	528.888778609	4.0
7.3728	528.976639344	5.0
7.383	529.064140486	4.0
7.3933	529.15213608	3.0
7.4035	529.238918953	0.0
7.4138	529.32619222	3.0
7.424	529.41226272	1.0
7.4342	529.497980954	2.0
7.4445	529.584183565	3.0
7.4547	529.669198165	1.0
7.465	529.754693167	3.0
7.4752	529.83900991	3.0
7.4854	529.922981564	3.0
7.4957	530.007427726	2.0
7.5059	530.090710083	1.0
7.5162	530.174463054	2.0
7.5264	530.257061773	2.0
7.5366	530.339322435	1.0
7.5469	530.422047937	4.0
7.5571	530.503633347	2.0
7.5674	530.585679782	3.0
7.5776	530.666595484	4.0
7.5878	530.747180017	1.0
7.5981	530.828219918	3.0
7.6083	530.908142958	2.0
7.6186	530.988517629	1.0
7.6288	531.067784607	1.0
7.639	531.146727164	3.0
7.6493	531.22611581	6.0
7.6595	531.304410352	1.0
7.6698	531.383147323	3.0
7.68	531.460799171	3.0
7.6902	531.538133207	2.0
7.7005	531.615904244	3.0
7.7107	531.69260347	3.0
7.721	531.76973611	3.0
7.7312	531.845805738	5.0
7.7414	531.921564029	1.0
7.7517	531.997750417	1.0
7.7619	532.072886833	1.0
7.7722	532.148447832	1.0
7.7824	532.222967477	0.0
7.7926	532.297182131	1.0
7.8029	532.371816158	1.0
7.8131	532.445421608	1.0
7.8234	532.519442989	3.0
7.8336	532.592444235	1.0
