TL-DOS Lehrstuhlversuch
detector=R1408102
job_number=2015-10-23-003
irradiation_dose [mSv]=4.0

[BEGIN DATA]
time [sec] 	 temperature [K] 	 photoncount 
0.0	250.515966186	0.0
0.0102	251.560975159	0.0
0.0205	252.612598428	0.0
0.0307	253.650428477	0.0
0.041	254.694827385	3.0
0.0512	255.725527827	1.0
0.0614	256.752699124	1.0
0.0717	257.786371816	1.0
0.0819	258.806486729	0.0
0.0922	259.833058374	1.0
0.1024	260.846165379	1.0
0.1126	261.855803479	1.0
0.1229	262.871831999	4.0
0.1331	263.874534163	1.0
0.1434	264.883582847	1.0
0.1536	265.879396723	2.0
0.1638	266.871800907	1.0
0.1741	267.87048643	3.0
0.1843	268.85607307	0.0
0.1946	269.847897899	0.0
0.2048	270.826713831	2.0
0.215	271.802178271	0.0
0.2253	272.783816832	0.0
0.2355	273.7525801	1.0
0.2458	274.727475075	0.0
0.256	275.689583206	0.0
0.2662	276.648397055	0.0
0.2765	277.613279635	0.0
0.2867	278.565506696	1.0
0.297	279.523760799	0.0
0.3072	280.469446322	0.0
0.3174	281.411893794	0.0
0.3277	282.360306408	0.0
0.3379	283.296279525	0.0
0.3482	284.238176805	1.0
0.3584	285.167720045	0.0
0.3686	286.094080504	0.0
0.3789	287.026304284	0.0
0.3891	287.946300902	0.0
0.3994	288.872120562	0.0
0.4096	289.785797057	0.0
0.4198	290.696345099	0.0
0.4301	291.612656379	0.0
0.4403	292.516949207	0.0
0.4506	293.426965681	1.0
0.4608	294.325046267	0.0
0.471	295.220051801	0.0
0.4813	296.120722198	0.0
0.4915	297.009579291	1.0
0.5018	297.90406233	0.0
0.512	298.786813219	0.0
0.5222	299.666541547	0.0
0.5325	300.551838041	2.0
0.5427	301.425522876	0.0
0.553	302.304737627	1.0
0.5632	303.172420489	0.0
0.5734	304.037132382	0.0
0.5837	304.907317397	0.0
0.5939	305.766088957	0.0
0.6042	306.63029604	0.0
0.6144	307.483168077	0.0
0.6246	308.333119857	2.0
0.6349	309.188451336	0.0
0.6451	310.032564181	0.0
0.6554	310.882019769	1.0
0.6656	311.720333792	0.0
0.6758	312.555777405	1.0
0.6861	313.396508889	1.0
0.6963	314.226213236	1.0
0.7066	315.061169126	1.0
0.7168	315.885173632	0.0
0.727	316.706356725	1.0
0.7373	317.532737428	0.0
0.7475	318.348279219	0.0
0.7578	319.168982914	1.0
0.768	319.978922158	0.0
0.7782	320.786088149	0.0
0.7885	321.598363029	1.0
0.7987	322.399984012	2.0
0.809	323.206678787	0.0
0.8192	324.002792855	1.0
0.8294	324.796181007	0.0
0.8397	325.594590842	2.0
0.8499	326.382528636	0.0
0.8602	327.175453617	2.0
0.8704	327.957978495	1.0
0.8806	328.737823988	1.0
0.8909	329.522605447	0.0
0.9011	330.297093616	2.0
0.9114	331.076483843	1.0
0.9216	331.845651492	0.0
0.9318	332.61218549	3.0
0.9421	333.383571201	1.0
0.9523	334.144839322	1.0
0.9626	334.910925826	2.0
0.9728	335.666964245	1.0
0.983	336.420413968	4.0
0.9933	337.178632589	2.0
1.0035	337.92690632	0.0
1.0138	338.679916187	2.0
1.024	339.423049484	4.0
1.0342	340.163638273	4.0
1.0445	340.908914557	1.0
1.0547	341.644415705	1.0
1.065	342.384572147	5.0
1.0752	343.115020604	5.0
1.0854	343.842967988	8.0
1.0957	344.575522853	2.0
1.1059	345.298469438	2.0
1.1162	346.025991853	2.0
1.1264	346.743971994	6.0
1.1366	347.459493753	6.0
1.1469	348.179544347	4.0
1.1571	348.890150668	5.0
1.1674	349.605254712	10.0
1.1776	350.310979364	5.0
1.1878	351.014287595	9.0
1.1981	351.722047358	11.0
1.2083	352.420524056	9.0
1.2186	353.123421704	15.0
1.2288	353.817100059	17.0
1.239	354.508403242	16.0
1.2493	355.20408197	8.0
1.2595	355.89063609	13.0
1.2698	356.581535697	16.0
1.28	357.26337338	31.0
1.2902	357.942876432	19.0
1.3005	358.626680342	31.0
1.3107	359.301515396	18.0
1.321	359.980621762	24.0
1.3312	360.650820884	30.0
1.3414	361.318725228	43.0
1.3517	361.990857016	31.0
1.3619	362.65417304	28.0
1.3722	363.321687468	44.0
1.3824	363.980446695	39.0
1.3926	364.636950312	45.0
1.4029	365.297609214	38.0
1.4131	365.949602832	46.0
1.4234	366.60572319	50.0
1.4336	367.253237792	40.0
1.4438	367.898535286	51.0
1.4541	368.547917138	43.0
1.4643	369.188781617	56.0
1.4746	369.833702393	64.0
1.4848	370.47016431	82.0
1.495	371.104446964	87.0
1.5053	371.742744257	84.0
1.5155	372.372669564	90.0
1.5258	373.006581931	100.0
1.536	373.632179824	99.0
1.5462	374.255635655	114.0
1.5565	374.883037596	120.0
1.5667	375.502210457	129.0
1.577	376.12530232	122.0
1.5872	376.740221633	133.0
1.5974	377.353035447	148.0
1.6077	377.969728014	167.0
1.6179	378.578331965	137.0
1.6282	379.190788024	187.0
1.6384	379.795211034	156.0
1.6486	380.397564484	194.0
1.6589	381.00373048	184.0
1.6691	381.601945927	241.0
1.6794	382.203947729	228.0
1.6896	382.798053601	230.0
1.6998	383.390125239	238.0
1.7101	383.985944345	239.0
1.7203	384.573948614	273.0
1.7306	385.165674607	278.0
1.7408	385.749639449	296.0
1.751	386.33160478	332.0
1.7613	386.917253611	372.0
1.7715	387.495221001	343.0
1.7818	388.076846586	377.0
1.792	388.650843499	375.0
1.8022	389.222875031	435.0
1.8125	389.798527188	416.0
1.8227	390.366629021	429.0
1.833	390.938326607	466.0
1.8432	391.502525737	460.0
1.8534	392.064793035	472.0
1.8637	392.630619156	494.0
1.8739	393.189023832	545.0
1.8842	393.750962883	547.0
1.8944	394.305531473	528.0
1.9046	394.858201205	541.0
1.9149	395.414369014	581.0
1.9251	395.963242058	600.0
1.9354	396.515589147	629.0
1.9456	397.060691584	614.0
1.9558	397.603927576	600.0
1.9661	398.150601934	642.0
1.9763	398.690106044	667.0
1.9866	399.233024901	664.0
1.9968	399.768822766	681.0
2.007	400.302786046	696.0
2.0173	400.840129001	679.0
2.0275	401.3704241	721.0
2.0378	401.904075658	716.0
2.048	402.430727775	761.0
2.0582	402.955576623	723.0
2.0685	403.483747457	781.0
2.0787	404.004990737	722.0
2.089	404.529533182	780.0
2.0992	405.047195665	768.0
2.1094	405.563085657	749.0
2.1197	406.082240932	716.0
2.1299	406.594586903	724.0
2.1402	407.110175724	721.0
2.1504	407.619002019	753.0
2.1606	408.126086079	713.0
2.1709	408.636379685	680.0
2.1811	409.139980217	735.0
2.1914	409.646768247	701.0
2.2016	410.146909182	631.0
2.2118	410.645337622	646.0
2.2221	411.146920823	636.0
2.2323	411.641925197	599.0
2.2426	412.140062659	621.0
2.2528	412.631666489	576.0
2.263	413.121587054	514.0
2.2733	413.614608531	574.0
2.2835	414.101163478	551.0
2.2938	414.590798033	482.0
2.304	415.07401048	509.0
2.3142	415.555568396	462.0
2.3245	416.040174292	455.0
2.3347	416.518424038	438.0
2.345	416.999700825	445.0
2.3552	417.474665127	436.0
2.3654	417.948003138	416.0
2.3757	418.424337103	408.0
2.3859	418.894423412	393.0
2.3962	419.367485094	368.0
2.4064	419.83434204	381.0
2.4166	420.299600455	378.0
2.4269	420.767803685	364.0
2.4371	421.229865904	341.0
2.4474	421.694852707	375.0
2.4576	422.153740685	340.0
2.4678	422.611057419	371.0
2.4781	423.071268701	351.0
2.4883	423.525443795	359.0
2.4986	423.982493552	387.0
2.5088	424.433548588	389.0
2.519	424.8830592	337.0
2.5293	425.335414952	385.0
2.5395	425.78183755	363.0
2.5498	426.231085742	407.0
2.56	426.67444154	379.0
2.5702	427.116279275	389.0
2.5805	427.560913586	397.0
2.5907	427.999716018	415.0
2.601	428.441295814	413.0
2.6112	428.877083794	424.0
2.6214	429.311379625	461.0
2.6317	429.748424295	472.0
2.6419	430.179736633	471.0
2.6522	430.613778927	468.0
2.6624	431.042128268	462.0
2.6726	431.46901093	512.0
2.6829	431.89859551	527.0
2.6931	432.322545605	499.0
2.7034	432.749179058	503.0
2.7136	433.170216733	522.0
2.7238	433.589812764	511.0
2.7341	434.012064593	543.0
2.7443	434.428778115	570.0
2.7546	434.848129191	548.0
2.7648	435.261980006	581.0
2.775	435.674413785	564.0
2.7853	436.089458029	606.0
2.7955	436.499058501	604.0
2.8058	436.911251505	584.0
2.816	437.318038136	605.0
2.8262	437.723431918	587.0
2.8365	438.131391606	650.0
2.8467	438.534000444	625.0
2.857	438.939157561	632.0
2.8672	439.339000588	617.0
2.8774	439.737474541	630.0
2.8877	440.138470603	668.0
2.8979	440.53420715	616.0
2.9082	440.932448479	636.0
2.9184	441.325466425	657.0
2.9286	441.717138667	660.0
2.9389	442.111289966	710.0
2.9491	442.500271528	680.0
2.9594	442.891715117	658.0
2.9696	443.278024483	697.0
2.9798	443.663011115	694.0
2.9901	444.050434488	646.0
3.0003	444.432776369	704.0
3.0106	444.81753825	638.0
3.0208	445.197253547	642.0
3.031	445.575668689	694.0
3.0413	445.956478978	666.0
3.0515	446.332294512	660.0
3.0618	446.710488739	676.0
3.072	447.083722524	670.0
3.0822	447.455678347	631.0
3.0925	447.829988433	639.0
3.1027	448.199389021	625.0
3.113	448.5711277	623.0
3.1232	448.937990609	612.0
3.1334	449.303597369	651.0
3.1437	449.671518206	620.0
3.1539	450.034613349	686.0
3.1642	450.400006671	620.0
3.1744	450.76060745	617.0
3.1846	451.119973523	572.0
3.1949	451.481614172	587.0
3.2051	451.838511499	590.0
3.2154	452.197667777	573.0
3.2256	452.552113317	582.0
3.2358	452.905345226	544.0
3.2461	453.260812887	567.0
3.2563	453.611618191	574.0
3.2666	453.964643887	565.0
3.2768	454.313039254	562.0
3.287	454.660241707	548.0
3.2973	455.009641749	504.0
3.3075	455.354459016	539.0
3.3178	455.701458776	490.0
3.328	456.043907244	543.0
3.3382	456.385183159	613.0
3.3485	456.728619152	528.0
3.3587	457.067550595	499.0
3.369	457.408627277	520.0
3.3792	457.745230356	447.0
3.3894	458.080680896	465.0
3.3997	458.418254643	507.0
3.4099	458.75140073	515.0
3.4202	459.086655438	480.0
3.4304	459.417512904	486.0
3.4406	459.747237505	516.0
3.4509	460.07904907	510.0
3.4611	460.406508554	499.0
3.4714	460.736040666	491.0
3.4816	461.061250593	439.0
3.4918	461.385346993	480.0
3.5021	461.711494735	427.0
3.5123	462.033364682	443.0
3.5226	462.357271878	488.0
3.5328	462.676930667	480.0
3.543	462.995494937	496.0
3.5533	463.316075532	499.0
3.5635	463.632451352	485.0
3.5738	463.950829647	510.0
3.584	464.265032053	490.0
3.5942	464.578158621	483.0
3.6045	464.893267098	478.0
3.6147	465.204242573	489.0
3.625	465.517186342	488.0
3.6352	465.826025501	507.0
3.6454	466.133807187	515.0
3.6557	466.443536952	458.0
3.6659	466.749204262	482.0
3.6762	467.056806269	480.0
3.6864	467.360373729	479.0
3.6966	467.662901767	488.0
3.7069	467.96734463	492.0
3.7171	468.267794383	512.0
3.7274	468.570145808	484.0
3.7376	468.868531554	495.0
3.7478	469.16589562	440.0
3.7581	469.465141826	493.0
3.7683	469.760463083	471.0
3.7786	470.05765355	465.0
3.7888	470.350946031	497.0
3.799	470.64323427	466.0
3.8093	470.937372524	465.0
3.8195	471.227652824	504.0
3.8298	471.519770428	483.0
3.84	471.808056582	511.0
3.8502	472.095355637	482.0
3.8605	472.384473127	454.0
3.8707	472.669798517	525.0
3.881	472.956929849	453.0
3.8912	473.240295132	478.0
3.9014	473.522690165	439.0
3.9117	473.806872593	445.0
3.9219	474.087327649	462.0
3.9322	474.369557822	485.0
3.9424	474.64808623	464.0
3.9526	474.925660949	449.0
3.9629	475.204992553	444.0
3.9731	475.48066041	438.0
3.9834	475.758073084	500.0
3.9936	476.031847179	443.0
4.0038	476.304683864	493.0
4.0141	476.579247446	444.0
4.0243	476.850209818	430.0
4.0346	477.122887224	449.0
4.0448	477.391988159	495.0
4.055	477.660167686	484.0
4.0653	477.930044633	468.0
4.0755	478.19638184	434.0
4.0858	478.464404806	445.0
4.096	478.72891235	396.0
4.1062	478.992514214	421.0
4.1165	479.257784523	481.0
4.1267	479.519575514	472.0
4.137	479.783023489	458.0
4.1472	480.043016048	425.0
4.1574	480.302118386	447.0
4.1677	480.56286069	452.0
4.1779	480.820183066	432.0
4.1882	481.079134143	463.0
4.1984	481.334688785	411.0
4.2086	481.589368401	436.0
4.2189	481.845659991	421.0
4.2291	482.098590029	437.0
4.2394	482.353120966	427.0
4.2496	482.604313444	394.0
4.2598	482.854645832	419.0
4.2701	483.106562679	428.0
4.2803	483.355175352	414.0
4.2906	483.605361599	407.0
4.3008	483.852266372	423.0
4.311	484.098325737	418.0
4.3213	484.345942514	448.0
4.3315	484.590311519	434.0
4.3418	484.836227237	405.0
4.352	485.078917494	409.0
4.3622	485.320776773	412.0
4.3725	485.56416688	388.0
4.3827	485.804364653	412.0
4.393	486.046082737	381.0
4.4032	486.284630417	380.0
4.4134	486.522361304	415.0
4.4237	486.761596888	414.0
4.4339	486.997694629	386.0
4.4442	487.235286731	406.0
4.4544	487.469762545	380.0
4.4646	487.703435508	383.0
4.4749	487.938587485	405.0
4.4851	488.170655179	416.0
4.4954	488.404191726	425.0
4.5056	488.634665179	396.0
4.5158	488.864349485	406.0
4.5261	489.095487559	394.0
4.5363	489.323593997	426.0
4.5466	489.553144215	368.0
4.5568	489.779683625	401.0
4.567	490.005447358	344.0
4.5773	490.232640043	401.0
4.5875	490.456852841	443.0
4.5978	490.682484775	388.0
4.608	490.905157293	413.0
4.6182	491.127067375	379.0
4.6285	491.350382017	357.0
4.6387	491.570767638	402.0
4.649	491.79254817	413.0
4.6592	492.011419802	399.0
4.6694	492.229542012	415.0
4.6797	492.449044808	392.0
4.6899	492.665668578	388.0
4.7002	492.88366345	381.0
4.7104	493.098799074	391.0
4.7206	493.313198069	367.0
4.7309	493.528954084	410.0
4.7411	493.741880216	427.0
4.7514	493.956154047	418.0
4.7616	494.167617435	386.0
4.7718	494.378356768	390.0
4.7821	494.590429957	400.0
4.7923	494.799721568	406.0
4.8026	495.010337873	420.0
4.8128	495.218191709	391.0
4.823	495.425333847	410.0
4.8333	495.633787074	383.0
4.8435	495.839506204	415.0
4.8538	496.046527415	400.0
4.864	496.25083331	388.0
4.8742	496.454439657	388.0
4.8845	496.659334713	411.0
4.8947	496.86154234	400.0
4.905	497.065029823	394.0
4.9152	497.265848339	404.0
4.9254	497.465979248	397.0
4.9357	497.667376868	411.0
4.9459	497.866132933	384.0
4.9562	498.066147007	409.0
4.9664	498.263537672	390.0
4.9766	498.460252466	374.0
4.9869	498.65821235	393.0
4.9971	498.853575768	422.0
5.0074	499.050175722	390.0
5.0176	499.244197047	420.0
5.0278	499.437554037	398.0
5.0381	499.632134865	416.0
5.0483	499.824163546	415.0
5.0586	500.017407657	402.0
5.0688	500.208117155	409.0
5.079	500.398173658	409.0
5.0893	500.589433107	392.0
5.0995	500.778183975	369.0
5.1098	500.968129525	421.0
5.12	501.155583725	408.0
5.1302	501.342396078	403.0
5.1405	501.530390844	376.0
5.1507	501.715919847	381.0
5.161	501.90262314	367.0
5.1712	502.086877611	356.0
5.1814	502.270501189	398.0
5.1917	502.455286997	383.0
5.2019	502.637649131	380.0
5.2122	502.821165512	355.0
5.2224	503.002274868	380.0
5.2326	503.182764102	344.0
5.2429	503.364395728	390.0
5.2531	503.54364505	364.0
5.2634	503.724028916	394.0
5.2736	503.902046845	352.0
5.2838	504.079455236	327.0
5.2941	504.257986518	332.0
5.3043	504.434176163	332.0
5.3146	504.611480984	398.0
5.3248	504.786460254	351.0
5.335	504.96084039	357.0
5.3453	505.136324251	348.0
5.3555	505.309506444	355.0
5.3658	505.483784779	300.0
5.376	505.655777257	343.0
5.3862	505.827180829	325.0
5.3965	505.999669286	338.0
5.4067	506.169895363	329.0
5.417	506.341198871	315.0
5.4272	506.510255542	288.0
5.4374	506.678733358	307.0
5.4477	506.84827754	316.0
5.4579	507.01559796	295.0
5.4682	507.18397742	314.0
5.4784	507.350148395	285.0
5.4886	507.515750395	302.0
5.4989	507.68240056	280.0
5.5091	507.846864921	284.0
5.5194	508.012370245	270.0
5.5296	508.175704781	270.0
5.5398	508.338480055	284.0
5.5501	508.502285602	273.0
5.5603	508.663942655	258.0
5.5706	508.826622902	277.0
5.5808	508.987169416	243.0
5.591	509.147166214	234.0
5.6013	509.308175698	238.0
5.6115	509.467073362	218.0
5.6218	509.626976755	263.0
5.632	509.784782836	248.0
5.6422	509.942048585	203.0
5.6525	510.100309734	223.0
5.6627	510.25649511	252.0
5.673	510.413669049	188.0
5.6832	510.568781475	234.0
5.6934	510.723362792	183.0
5.7037	510.878922518	214.0
5.7139	511.032441904	194.0
5.7242	511.186932978	181.0
5.7344	511.339397727	222.0
5.7446	511.491340434	204.0
5.7549	511.644244849	185.0
5.7651	511.795143751	178.0
5.7754	511.946997755	201.0
5.7856	512.096860023	164.0
5.7958	512.246209159	165.0
5.8061	512.396503588	162.0
5.8163	512.544826736	152.0
5.8266	512.694088684	137.0
5.8368	512.841392893	126.0
5.847	512.988192728	165.0
5.8573	513.135921722	145.0
5.8675	513.281713083	141.0
5.8778	513.428427218	138.0
5.888	513.573217033	127.0
5.8982	513.717511084	128.0
5.9085	513.862718432	135.0
5.9187	514.006021222	131.0
5.929	514.150231035	104.0
5.9392	514.292549375	134.0
5.9494	514.434380413	107.0
5.9597	514.577109159	101.0
5.9699	514.717965856	113.0
5.9802	514.859714095	92.0
5.9904	514.999603146	94.0
6.0006	515.139013213	95.0
6.0109	515.279305665	107.0
6.0211	515.417758023	108.0
6.0314	515.557086704	86.0
6.0416	515.694587933	89.0
6.0518	515.831618354	89.0
6.0621	515.969516098	93.0
6.0723	516.105605158	93.0
6.0826	516.242555582	82.0
6.0928	516.377709748	72.0
6.103	516.512401142	75.0
6.1133	516.647945054	71.0
6.1235	516.781711155	69.0
6.1338	516.916323918	78.0
6.144	517.049171083	54.0
6.1542	517.181563376	57.0
6.1645	517.314793635	68.0
6.1747	517.446276429	68.0
6.185	517.578591433	65.0
6.1952	517.709170977	64.0
6.2054	517.839303413	51.0
6.2157	517.970259511	55.0
6.2259	518.099497973	55.0
6.2362	518.229554439	54.0
6.2464	518.357905069	51.0
6.2566	518.485816222	50.0
6.2669	518.614536978	61.0
6.2771	518.741569417	34.0
6.2874	518.869405898	41.0
6.2976	518.995565659	48.0
6.3078	519.121293446	32.0
6.3181	519.247817016	42.0
6.3283	519.372681088	29.0
6.3386	519.498335476	34.0
6.3488	519.622341766	40.0
6.359	519.745923455	31.0
6.3693	519.870287344	39.0
6.3795	519.993020061	36.0
6.3898	520.116529604	26.0
6.4	520.238419181	26.0
6.4102	520.359891405	36.0
6.4205	520.482132477	31.0
6.4307	520.60277022	32.0
6.441	520.72417153	25.0
6.4512	520.843980525	31.0
6.4614	520.963379291	29.0
6.4717	521.083533782	27.0
6.4819	521.202112311	25.0
6.4922	521.321441373	23.0
6.5024	521.4392053	18.0
6.5126	521.556566001	23.0
6.5229	521.674669527	19.0
6.5331	521.791223992	15.0
6.5434	521.908516178	21.0
6.5536	522.024269946	27.0
6.5638	522.13962737	15.0
6.5741	522.25571494	17.0
6.5843	522.37027989	13.0
6.5946	522.485569969	18.0
6.6048	522.59934789	14.0
6.615	522.712736232	20.0
6.6253	522.826842256	19.0
6.6355	522.939451652	14.0
6.6458	523.052773799	12.0
6.656	523.164609599	9.0
6.6662	523.27606247	19.0
6.6765	523.388220773	17.0
6.6867	523.498907993	5.0
6.697	523.610295799	7.0
6.7072	523.720222629	15.0
6.7174	523.829773067	15.0
6.7277	523.940016895	11.0
6.7379	524.048814751	15.0
6.7482	524.158301234	7.0
6.7584	524.266351679	13.0
6.7686	524.374032157	9.0
6.7789	524.482394188	9.0
6.7891	524.589334931	10.0
6.7994	524.696952545	11.0
6.8096	524.803158634	10.0
6.8198	524.90900107	12.0
6.8301	525.015513428	9.0
6.8403	525.120628755	4.0
6.8506	525.226409402	7.0
6.8608	525.330802617	12.0
6.871	525.434838386	13.0
6.8813	525.539532641	6.0
6.8915	525.642853714	14.0
6.9018	525.746828748	7.0
6.912	525.849440033	7.0
6.9222	525.951699975	11.0
6.9325	526.054607162	6.0
6.9427	526.156164606	10.0
6.953	526.258364849	9.0
6.9632	526.359224621	10.0
6.9734	526.459739046	6.0
6.9837	526.56088967	5.0
6.9939	526.660713589	6.0
7.0042	526.761169335	3.0
7.0144	526.860307491	6.0
7.0246	526.959106196	1.0
7.0349	527.058530239	1.0
7.0451	527.156650224	7.0
7.0554	527.255391251	7.0
7.0656	527.352837178	7.0
7.0758	527.449949449	9.0
7.0861	527.547676383	5.0
7.0963	527.644121518	6.0
7.1066	527.741177095	8.0
7.1168	527.836959679	6.0
7.127	527.932414301	3.0
7.1373	528.028473095	1.0
7.1475	528.123271971	7.0
7.1578	528.218670867	1.0
7.168	528.3128185	9.0
7.1782	528.406643769	4.0
7.1885	528.501062897	4.0
7.1987	528.594243612	6.0
7.209	528.688014107	4.0
7.2192	528.780554696	4.0
7.2294	528.872778424	4.0
7.2397	528.965585875	1.0
7.2499	529.057176051	8.0
7.2602	529.14934594	8.0
7.2704	529.240306917	2.0
7.2806	529.330956441	2.0
7.2909	529.422179724	9.0
7.3011	529.512206511	8.0
7.3114	529.602803115	2.0
7.3216	529.692211443	5.0
7.3318	529.781313634	4.0
7.3421	529.87097979	4.0
7.3523	529.959469874	5.0
7.3626	530.048520049	6.0
7.3728	530.13640223	4.0
7.383	530.2239835	4.0
7.3933	530.312119109	2.0
7.4035	530.39909872	5.0
7.4138	530.486628862	6.0
7.424	530.573010947	5.0
7.4342	530.659097258	7.0
7.4445	530.745728445	4.0
7.4547	530.831223366	1.0
7.465	530.917259421	3.0
7.4752	531.002167016	3.0
7.4854	531.086783885	0.0
7.4957	531.171936329	3.0
7.5059	531.255971904	5.0
7.5162	531.340539375	4.0
7.5264	531.423997648	2.0
7.5366	531.507170158	2.0
7.5469	531.590869101	2.0
7.5571	531.673470239	4.0
7.5674	531.756594194	1.0
7.5776	531.838627885	1.0
7.5878	531.92038069	2.0
7.5981	532.002650942	4.0
7.6083	532.083842128	4.0
7.6186	532.165547207	3.0
7.6288	532.246180632	4.0
7.639	532.326537966	3.0
7.6493	532.407403915	3.0
7.6595	532.487209216	2.0
7.6698	532.567519638	2.0
7.68	532.646776699	5.0
7.6902	532.725762381	5.0
7.7005	532.805247997	5.0
7.7107	532.88369107	4.0
7.721	532.962630641	3.0
7.7312	533.040534831	3.0
7.7414	533.118172276	1.0
7.7517	533.19630112	3.0
7.7619	533.273405216	4.0
7.7722	533.350997337	0.0
7.7824	533.427571749	4.0
