TL-DOS Lehrstuhlversuch
detector=R1406804
job_number=2015-10-20-012
irradiation_dose [mSv]=2.0

[BEGIN DATA]
time [sec] 	 temperature [K] 	 photoncount 
0.0	78.8654500832	0.0
0.0102	81.3650748892	0.0
0.0205	83.8755673377	3.0
0.0307	86.348252861	0.0
0.041	88.8316889027	3.0
0.0512	91.277725477	2.0
0.0614	93.7106097701	2.0
0.0717	96.1540715374	2.0
0.0819	98.5607358325	1.0
0.0922	100.977863605	1.0
0.1024	103.358590483	3.0
0.1126	105.72651625	2.0
0.1229	108.104737069	1.0
0.1331	110.447142917	2.0
0.1434	112.799732864	0.0
0.1536	115.11689383	2.0
0.1638	117.421595476	4.0
0.1741	119.736317295	2.0
0.1843	122.016180409	0.0
0.1946	124.305955706	0.0
0.2048	126.561247982	0.0
0.215	128.804413604	0.0
0.2253	131.057331859	2.0
0.2355	133.276322145	3.0
0.2458	135.504959955	2.0
0.256	137.700035449	0.0
0.2662	139.883308073	1.0
0.2765	142.076072932	1.0
0.2867	144.235815706	0.0
0.297	146.404948414	1.0
0.3072	148.541414926	0.0
0.3174	150.666393708	0.0
0.3277	152.80061128	0.0
0.3379	154.902688463	0.0
0.3482	157.013904868	1.0
0.3584	159.09332727	0.0
0.3686	161.161568668	0.0
0.3789	163.238802178	0.0
0.3891	165.284753454	0.0
0.3994	167.339599932	1.0
0.4096	169.363501316	0.0
0.4198	171.376520229	0.0
0.4301	173.398291163	0.0
0.4403	175.389615106	0.0
0.4506	177.389596747	0.0
0.4608	179.359459534	0.0
0.471	181.318730415	1.0
0.4813	183.286519637	0.0
0.4915	185.224674808	0.0
0.5018	187.171256514	0.0
0.512	189.088523547	0.0
0.5222	190.995481479	0.0
0.5325	192.910730311	0.0
0.5427	194.797136327	0.0
0.553	196.69174389	0.0
0.5632	198.557819485	0.0
0.5734	200.413861236	0.0
0.5837	202.277972517	0.0
0.5939	204.114011093	0.0
0.6042	205.958032231	0.0
0.6144	207.774283212	0.0
0.6246	209.580768255	0.0
0.6349	211.395107369	0.0
0.6451	213.182123325	0.0
0.6554	214.976908707	0.0
0.6656	216.744665402	0.0
0.6758	218.50291691	0.0
0.6861	220.268812785	1.0
0.6963	222.008115036	0.0
0.7066	223.754979267	1.0
0.7168	225.475536483	0.0
0.727	227.186842303	1.0
0.7373	228.905588383	0.0
0.7475	230.598450895	0.0
0.7578	232.298673481	0.0
0.768	233.973291453	0.0
0.7782	235.638905044	0.0
0.7885	237.31176024	0.0
0.7987	238.959422963	0.0
0.809	240.614249245	0.0
0.8192	242.244154562	0.0
0.8294	243.865295917	0.0
0.8397	245.493485524	0.0
0.8499	247.097155302	1.0
0.8602	248.707797371	0.0
0.8704	250.294183871	0.0
0.8806	251.872040407	0.0
0.8909	253.456757006	0.0
0.9011	255.017608461	0.0
0.9114	256.585246045	0.0
0.9216	258.129275688	0.0
0.9318	259.66500312	1.0
0.9421	261.207407449	0.0
0.9523	262.726583839	0.0
0.9626	264.252365167	0.0
0.9728	265.755168891	0.0
0.983	267.249892075	0.0
0.9933	268.751113881	0.0
1.0035	270.229727939	2.0
1.0138	271.714770582	1.0
1.024	273.177449127	2.0
1.0342	274.632262885	0.0
1.0445	276.09340175	0.0
1.0547	277.532536499	1.0
1.065	278.977928188	0.0
1.0752	280.401552906	2.0
1.0854	281.817522827	0.0
1.0957	283.239648974	1.0
1.1059	284.64035852	1.0
1.1162	286.047157944	1.0
1.1264	287.43277158	0.0
1.1366	288.810934804	1.0
1.1469	290.195089881	0.0
1.1571	291.558400185	0.0
1.1674	292.927637765	2.0
1.1776	294.276255223	3.0
1.1878	295.617621197	0.0
1.1981	296.96481904	0.0
1.2083	298.291728669	2.0
1.2186	299.624407315	4.0
1.2288	300.937016401	2.0
1.239	302.242567618	2.0
1.2493	303.553794993	1.0
1.2595	304.845275853	1.0
1.2698	306.142371697	4.0
1.28	307.419933841	1.0
1.2902	308.690626564	4.0
1.3005	309.966843889	2.0
1.3107	311.223841937	3.0
1.321	312.486305046	4.0
1.3312	313.72975601	3.0
1.3414	314.966520967	3.0
1.3517	316.208663019	3.0
1.3619	317.432098952	4.0
1.3722	318.660854029	2.0
1.3824	319.871104588	5.0
1.3926	321.074847658	6.0
1.4029	322.283824254	5.0
1.4131	323.474594187	6.0
1.4234	324.670541243	4.0
1.4336	325.848477855	5.0
1.4438	327.02008073	5.0
1.4541	328.196777394	8.0
1.4643	329.355753518	5.0
1.4746	330.519768533	8.0
1.4848	331.666253987	14.0
1.495	332.806574817	14.0
1.5053	333.95185343	13.0
1.5155	335.079884645	13.0
1.5258	336.212820212	11.0
1.536	337.328694262	10.0
1.5462	338.438568284	6.0
1.5565	339.553267715	16.0
1.5667	340.651180257	12.0
1.577	341.753866204	13.0
1.5872	342.83994618	27.0
1.5974	343.92018633	14.0
1.6077	345.005123049	14.0
1.6179	346.073721094	19.0
1.6282	347.146965092	13.0
1.6384	348.204046502	23.0
1.6486	349.25544401	17.0
1.6589	350.311412689	31.0
1.6691	351.351478939	36.0
1.6794	352.396067095	27.0
1.6896	353.424924207	38.0
1.6998	354.448249178	28.0
1.7101	355.476023269	41.0
1.7203	356.48831953	48.0
1.7306	357.50501696	52.0
1.7408	358.506403369	44.0
1.751	359.502405346	48.0
1.7613	360.502737651	47.0
1.7715	361.488005386	45.0
1.7818	362.477556779	59.0
1.792	363.452205958	54.0
1.8022	364.421614472	74.0
1.8125	365.395237692	78.0
1.8227	366.354198569	96.0
1.833	367.31732873	78.0
1.8432	368.265954569	92.0
1.8534	369.20947967	90.0
1.8637	370.157106943	110.0
1.8739	371.090463362	90.0
1.8842	372.027877743	123.0
1.8944	372.951175071	114.0
1.9046	373.869507851	122.0
1.9149	374.791833275	137.0
1.9251	375.700268879	170.0
1.9354	376.612654097	179.0
1.9456	377.51129919	153.0
1.9558	378.40511229	176.0
1.9661	379.30281143	182.0
1.9763	380.18699161	191.0
1.9866	381.07501595	209.0
1.9968	381.949667028	195.0
2.007	382.819615129	257.0
2.0173	383.693345511	249.0
2.0275	384.553917893	254.0
2.0378	385.418231794	302.0
2.048	386.269529503	254.0
2.0582	387.116249804	292.0
2.0685	387.9666514	276.0
2.0787	388.804246316	319.0
2.089	389.645482853	346.0
2.0992	390.474050732	336.0
2.1094	391.298163422	377.0
2.1197	392.125859114	356.0
2.1299	392.941090069	383.0
2.1402	393.759865411	407.0
2.1504	394.566310353	384.0
2.1606	395.368419059	423.0
2.1709	396.1740151	417.0
2.1811	396.967479216	438.0
2.1914	397.764393082	415.0
2.2016	398.549305773	425.0
2.2118	399.329998006	460.0
2.2221	400.114084462	483.0
2.2323	400.886362917	476.0
2.2426	401.661999015	525.0
2.2528	402.42595437	464.0
2.263	403.185801955	537.0
2.2733	403.948953136	492.0
2.2835	404.700611592	447.0
2.2938	405.455538041	461.0
2.304	406.199095626	433.0
2.3142	406.938655119	476.0
2.3245	407.681430002	458.0
2.3347	408.413019018	446.0
2.345	409.147788771	463.0
2.3552	409.87149321	396.0
2.3654	410.591306308	415.0
2.3757	411.314248944	385.0
2.3859	412.026304378	369.0
2.3962	412.741455622	411.0
2.4064	413.445837	358.0
2.4166	414.146430935	363.0
2.4269	414.850070849	334.0
2.4371	415.543114252	298.0
2.4474	416.239170806	300.0
2.4576	416.924745051	321.0
2.4678	417.60663298	309.0
2.4781	418.291485559	281.0
2.4883	418.966024556	258.0
2.4986	419.643496252	238.0
2.5088	420.310765519	268.0
2.519	420.974446895	232.0
2.5293	421.641013765	211.0
2.5395	422.297542428	239.0
2.5498	422.956925486	222.0
2.56	423.606378522	217.0
2.5702	424.252339465	229.0
2.5805	424.901108858	249.0
2.5907	425.540108066	234.0
2.601	426.181885457	209.0
2.6112	426.813997959	248.0
2.6214	427.442711607	234.0
2.6317	428.074158719	224.0
2.6419	428.696096513	257.0
2.6522	429.320738311	261.0
2.6624	429.935973275	261.0
2.6726	430.547900136	292.0
2.6829	431.162487476	241.0
2.6931	431.767819399	281.0
2.7034	432.375783128	264.0
2.7136	432.974591188	282.0
2.7238	433.570179472	293.0
2.7341	434.1683572	309.0
2.7443	434.757526631	320.0
2.7546	435.3492576	332.0
2.7648	435.932077358	325.0
2.775	436.511763308	353.0
2.7853	437.093969564	349.0
2.7955	437.667408047	348.0
2.8058	438.243339673	367.0
2.816	438.81059802	375.0
2.8262	439.374806232	386.0
2.8365	439.941467457	403.0
2.8467	440.49959501	379.0
2.857	441.06014914	370.0
2.8672	441.612261569	436.0
2.8774	442.161405301	382.0
2.8877	442.712936552	397.0
2.8979	443.256161981	423.0
2.9082	443.801749197	414.0
2.9184	444.339120106	409.0
2.9286	444.873601585	435.0
2.9389	445.410406833	468.0
2.9491	445.939128029	435.0
2.9594	446.47014795	418.0
2.9696	446.993170942	440.0
2.9798	447.513381651	416.0
2.9901	448.035854086	418.0
3.0003	448.550458313	439.0
3.0106	449.06729989	444.0
3.0208	449.576358057	461.0
3.031	450.08267903	416.0
3.0413	450.59120134	417.0
3.0515	451.092065525	415.0
3.0618	451.595107322	411.0
3.072	452.090573528	420.0
3.0822	452.583375624	409.0
3.0925	453.07832028	424.0
3.1027	453.565811285	411.0
3.113	454.055421759	424.0
3.1232	454.537658912	415.0
3.1334	455.017303087	408.0
3.1437	455.499032616	415.0
3.1539	455.973507508	381.0
3.1642	456.450045278	373.0
3.1744	456.919406597	381.0
3.1846	457.386244171	384.0
3.1949	457.855111419	375.0
3.2051	458.316917731	376.0
3.2154	458.780731842	349.0
3.2256	459.237561114	371.0
3.2358	459.691934025	361.0
3.2461	460.148282418	374.0
3.2563	460.597758403	372.0
3.2666	461.049188579	373.0
3.2768	461.493820412	345.0
3.287	461.936061471	309.0
3.2973	462.380225265	373.0
3.3075	462.817700146	348.0
3.3178	463.25707704	355.0
3.328	463.689837109	348.0
3.3382	464.120270237	333.0
3.3485	464.552574764	316.0
3.3587	464.978368972	325.0
3.369	465.40601441	324.0
3.3792	465.827219694	350.0
3.3894	466.246160166	355.0
3.3997	466.66692207	309.0
3.4099	467.081347483	338.0
3.4202	467.497574697	345.0
3.4304	467.90753371	366.0
3.4406	468.315288383	320.0
3.4509	468.724815855	374.0
3.4611	469.128176021	369.0
3.4714	469.53328988	314.0
3.4816	469.9323029	367.0
3.4918	470.329170437	361.0
3.5021	470.727763438	350.0
3.5123	471.120353802	301.0
3.5226	471.514651035	322.0
3.5328	471.903010323	344.0
3.543	472.289281413	367.0
3.5533	472.677231896	366.0
3.5635	473.059340014	353.0
3.5738	473.443109428	345.0
3.584	473.82109944	315.0
3.5942	474.197057009	346.0
3.6045	474.574649133	336.0
3.6147	474.946554883	345.0
3.625	475.320077571	361.0
3.6352	475.68797517	322.0
3.6454	476.053894593	308.0
3.6557	476.421404926	317.0
3.6659	476.783380714	345.0
3.6762	477.146930267	326.0
3.6864	477.505004922	342.0
3.6966	477.861154218	334.0
3.7069	478.218851948	319.0
3.7171	478.571162906	335.0
3.7274	478.925005609	304.0
3.7376	479.273519594	317.0
3.7478	479.620159629	302.0
3.7581	479.968306753	308.0
3.7683	480.311210933	287.0
3.7786	480.655605961	356.0
3.7888	480.994814549	292.0
3.799	481.332199221	292.0
3.8093	481.671050743	301.0
3.8195	482.004799309	295.0
3.8298	482.339998917	309.0
3.84	482.670150564	313.0
3.8502	482.998526993	299.0
3.8605	483.328331108	281.0
3.8707	483.653168516	257.0
3.881	483.979418223	278.0
3.8912	484.300754751	312.0
3.9014	484.62036346	303.0
3.9117	484.941361735	287.0
3.9219	485.257525915	321.0
3.9322	485.575064685	258.0
3.9424	485.88782146	275.0
3.9526	486.198896549	311.0
3.9629	486.511324101	262.0
3.9731	486.819046631	302.0
3.9834	487.128107049	294.0
3.9936	487.432513151	257.0
4.0038	487.735282469	297.0
4.0141	488.03936814	258.0
4.0243	488.338874413	272.0
4.0346	488.639682852	286.0
4.0448	488.935961246	268.0
4.055	489.230646559	265.0
4.0653	489.526613078	278.0
4.0755	489.81812247	303.0
4.0858	490.11089926	294.0
4.096	490.399266959	302.0
4.1062	490.686084111	285.0
4.1165	490.974148261	287.0
4.1267	491.25787429	259.0
4.137	491.542833878	278.0
4.1472	491.823502097	259.0
4.1574	492.102661171	281.0
4.1677	492.383033947	240.0
4.1779	492.659184431	267.0
4.1882	492.936535537	264.0
4.1984	493.209709856	288.0
4.2086	493.481415323	290.0
4.2189	493.754302086	237.0
4.2291	494.023079294	287.0
4.2394	494.293025066	283.0
4.2496	494.558905573	275.0
4.2598	494.823356446	275.0
4.2701	495.088957075	279.0
4.2803	495.350557874	272.0
4.2906	495.613296037	228.0
4.3008	495.872077478	260.0
4.311	496.129467457	259.0
4.3213	496.387976493	279.0
4.3315	496.642592495	257.0
4.3418	496.898315493	251.0
4.352	497.150187415	279.0
4.3622	497.400705026	263.0
4.3725	497.652311816	257.0
4.3827	497.900129517	269.0
4.393	498.149024657	293.0
4.4032	498.394171545	264.0
4.4134	498.638000283	292.0
4.4237	498.882889118	256.0
4.4339	499.124090034	264.0
4.4442	499.366339621	259.0
4.4544	499.604941034	280.0
4.4646	499.842259494	304.0
4.4749	500.080609745	262.0
4.4851	500.315370545	254.0
4.4954	500.551152016	270.0
4.5056	500.783382722	266.0
4.5158	501.014364728	263.0
4.5261	501.246350977	237.0
4.5363	501.474843613	261.0
4.5466	501.70432967	248.0
4.5568	501.930359766	236.0
4.567	502.155174503	247.0
4.5773	502.38096667	268.0
4.5875	502.603358505	225.0
4.5978	502.826717235	256.0
4.608	503.046712279	243.0
4.6182	503.265524416	258.0
4.6285	503.485287884	251.0
4.6387	503.701741809	255.0
4.649	503.919136814	235.0
4.6592	504.133257944	245.0
4.6694	504.34622775	218.0
4.6797	504.560123486	208.0
4.6899	504.770798046	248.0
4.7002	504.982388558	217.0
4.7104	505.190792609	224.0
4.7206	505.398076075	225.0
4.7309	505.606260751	217.0
4.7411	505.811310255	215.0
4.7514	506.017251255	222.0
4.7616	506.220090873	216.0
4.7718	506.421839828	200.0
4.7821	506.624465928	196.0
4.7923	506.824040567	198.0
4.8026	507.024482899	188.0
4.8128	507.221906656	164.0
4.823	507.41826887	197.0
4.8333	507.615484811	159.0
4.8435	507.809730765	182.0
4.8538	508.004821243	182.0
4.864	508.196973744	169.0
4.8742	508.388093046	151.0
4.8845	508.580043279	176.0
4.8947	508.769102825	143.0
4.905	508.958984346	162.0
4.9152	509.146006335	153.0
4.9254	509.332022711	122.0
4.9357	509.518847831	130.0
4.9459	509.702859447	128.0
4.9562	509.887671092	132.0
4.9664	510.069699554	135.0
4.9766	510.250749253	136.0
4.9869	510.432586103	148.0
4.9971	510.61168457	102.0
5.0074	510.791561704	98.0
5.0176	510.968729967	146.0
5.0278	511.144945601	118.0
5.0381	511.321927369	95.0
5.0483	511.496243868	114.0
5.0586	511.671318245	103.0
5.0688	511.843756078	91.0
5.079	512.015266717	79.0
5.0893	512.187523034	93.0
5.0995	512.357185246	71.0
5.1098	512.5275851	94.0
5.12	512.695418806	82.0
5.1302	512.862350075	68.0
5.1405	513.030007112	63.0
5.1507	513.195139307	79.0
5.161	513.360989448	69.0
5.1712	513.524341959	73.0
5.1814	513.686816127	56.0
5.1917	513.849996685	66.0
5.2019	514.010719816	57.0
5.2122	514.172141723	55.0
5.2224	514.331132687	55.0
5.2326	514.48926876	54.0
5.2429	514.648092363	48.0
5.2531	514.804524152	49.0
5.2634	514.96163606	45.0
5.2736	515.116381932	57.0
5.2838	515.270295738	47.0
5.2941	515.424878717	31.0
5.3043	515.577133744	34.0
5.3146	515.730050731	41.0
5.3248	515.880664855	33.0
5.335	516.03046913	36.0
5.3453	516.180924711	44.0
5.3555	516.329114496	24.0
5.3658	516.477948567	25.0
5.376	516.624541262	36.0
5.3862	516.770345731	23.0
5.3965	516.916784116	23.0
5.4067	517.061017202	22.0
5.417	517.205877372	31.0
5.4272	517.348556011	21.0
5.4374	517.49046747	27.0
5.4477	517.632995919	25.0
5.4579	517.773377951	27.0
5.4682	517.914370324	19.0
5.4784	518.053239412	22.0
5.4886	518.191361805	23.0
5.4989	518.330084714	16.0
5.5091	518.466718517	19.0
5.5194	518.603946363	17.0
5.5296	518.739107618	15.0
5.5398	518.873542113	15.0
5.5501	519.008561091	12.0
5.5603	519.141546742	12.0
5.5706	519.275110576	11.0
5.5808	519.406662996	11.0
5.591	519.537508062	15.0
5.6013	519.668922005	8.0
5.6115	519.79835691	9.0
5.6218	519.928354561	13.0
5.632	520.056394504	4.0
5.6422	520.183745979	8.0
5.6525	520.311651142	5.0
5.6627	520.437630108	7.0
5.673	520.564156794	11.0
5.6832	520.688778043	13.0
5.6934	520.812729207	4.0
5.7037	520.937219274	12.0
5.7139	521.059834575	7.0
5.7242	521.182982972	16.0
5.7344	521.304276808	9.0
5.7446	521.424918449	8.0
5.7549	521.546084605	4.0
5.7651	521.665426052	4.0
5.7754	521.78528636	7.0
5.7856	521.903341624	3.0
5.7958	522.020762108	7.0
5.8061	522.138693102	3.0
5.8163	522.254848107	6.0
5.8266	522.371508119	0.0
5.8368	522.486411283	6.0
5.847	522.600696615	3.0
5.8573	522.715478827	9.0
5.8675	522.828532468	5.0
5.8778	522.942077634	4.0
5.888	523.053912858	1.0
5.8982	523.165146748	3.0
5.9085	523.27686425	5.0
5.9187	523.386899335	7.0
5.929	523.497412821	7.0
5.9392	523.606262021	1.0
5.9494	523.714525942	6.0
5.9597	523.823260563	3.0
5.9699	523.930357688	0.0
5.9802	524.03792044	4.0
5.9904	524.143863344	8.0
6.0006	524.249236595	5.0
6.0109	524.355067979	0.0
6.0211	524.459305588	4.0
6.0314	524.563996392	3.0
6.0416	524.667110598	1.0
6.0518	524.769670361	1.0
6.0621	524.872676024	5.0
6.0723	524.974130467	3.0
6.0826	525.076026004	4.0
6.0928	525.176387038	2.0
6.103	525.276208434	1.0
6.1133	525.376463824	3.0
6.1235	525.475209412	1.0
6.1338	525.574384316	5.0
6.144	525.67206569	1.0
6.1542	525.769221833	2.0
6.1645	525.866800383	0.0
6.1747	525.962909443	1.0
6.185	526.059436356	5.0
6.1952	526.154509617	2.0
6.2054	526.24907167	2.0
6.2157	526.344044852	0.0
6.2259	526.437587779	3.0
6.2362	526.531537404	3.0
6.2464	526.624072188	3.0
6.2566	526.716109414	2.0
6.2669	526.808546792	6.0
6.2771	526.899592103	3.0
6.2874	526.991033253	4.0
6.2976	527.081097339	0.0
6.3078	527.170677152	0.0
6.3181	527.260646432	4.0
6.3283	527.349260814	2.0
6.3386	527.438260466	4.0
6.3488	527.525919821	2.0
6.359	527.613107834	1.0
6.3693	527.700674916	2.0
6.3795	527.786923275	2.0
6.3898	527.873546617	2.0
6.4	527.958865449	3.0
6.4102	528.043725524	2.0
6.4205	528.128954545	3.0
6.4307	528.212900055	2.0
6.441	528.297210535	2.0
6.4512	528.380251336	2.0
6.4614	528.462845629	1.0
6.4717	528.545799018	1.0
6.4819	528.627503165	1.0
6.4922	528.709562537	1.0
6.5024	528.790386131	1.0
6.5126	528.870775139	2.0
6.5229	528.951513655	0.0
6.5331	529.031036283	1.0
6.5434	529.110904653	1.0
6.5536	529.18957024	1.0
6.5638	529.267812844	2.0
6.5741	529.346395624	0.0
6.5843	529.423794982	2.0
6.5946	529.50153085	0.0
6.6048	529.578096049	2.0
6.615	529.654249559	0.0
6.6253	529.730734162	1.0
6.6355	529.80606694	2.0
6.6458	529.881727243	1.0
6.656	529.956248136	1.0
6.6662	530.030368331	0.0
6.6765	530.104810779	2.0
6.6867	530.178132156	2.0
6.697	530.251772313	0.0
6.7072	530.324303481	0.0
6.7174	530.396444652	2.0
6.7277	530.46889947	4.0
6.7379	530.540263151	2.0
6.7482	530.611937101	3.0
6.7584	530.682531672	3.0
6.7686	530.752746657	2.0
6.7789	530.823266917	5.0
6.7891	530.892725172	3.0
6.7994	530.962485412	2.0
6.8096	531.031195093	1.0
6.8198	531.099535323	1.0
6.8301	531.168172677	1.0
6.8403	531.235776383	2.0
6.8506	531.303674009	2.0
6.8608	531.370549127	0.0
6.871	531.437064659	0.0
6.8813	531.503869381	1.0
6.8915	531.569668053	1.0
6.9018	531.635752798	3.0
6.912	531.700842336	1.0
6.9222	531.765581889	2.0
6.9325	531.830602911	2.0
6.9427	531.894644744	6.0
6.953	531.958965013	1.0
6.9632	532.022316647	0.0
6.9734	532.08532764	4.0
6.9837	532.148612587	2.0
6.9939	532.210944489	2.0
7.0042	532.273547393	1.0
7.0144	532.335207525	0.0
7.0246	532.396536111	2.0
7.0349	532.458131336	1.0
7.0451	532.518798964	0.0
7.0554	532.579730357	2.0
7.0656	532.63974415	3.0
7.0758	532.69943525	0.0
7.0861	532.75938587	2.0
7.0963	532.818433659	4.0
7.1066	532.877738171	0.0
7.1168	532.936149583	3.0
7.127	532.994246918	2.0
7.1373	533.052596843	0.0
7.1475	533.110068044	1.0
7.1578	533.167789113	4.0
7.168	533.224640928	5.0
7.1782	533.281187052	2.0
7.1885	533.337979022	2.0
7.1987	533.393915729	2.0
7.209	533.450095633	1.0
7.2192	533.505429492	1.0
7.2294	533.560465823	4.0
7.2397	533.615741435	1.0
7.2499	533.670184621	2.0
7.2602	533.724864509	1.0
7.2704	533.778720943	0.0
7.2806	533.832287791	2.0
7.2909	533.886087533	1.0
7.3011	533.939077074	0.0
7.3114	533.992296998	0.0
7.3216	534.044715453	0.0
7.3318	534.096852056	2.0
7.3421	534.149215333	2.0
7.3523	534.200790042	3.0
7.3626	534.252588983	2.0
7.3728	534.303607854	1.0
7.383	534.354352398	1.0
7.3933	534.405317565	2.0
7.4035	534.455515218	1.0
7.4138	534.505931116	2.0
7.424	534.555587773	2.0
7.4342	534.604977427	2.0
7.4445	534.654581813	0.0
7.4547	534.703439178	0.0
7.465	534.752508961	1.0
7.4752	534.800839774	3.0
7.4854	534.848910714	1.0
7.4957	534.897190652	4.0
7.5059	534.944743516	0.0
7.5162	534.992503125	3.0
7.5264	535.039543495	0.0
7.5366	535.086330931	0.0
7.5469	535.133321784	2.0
7.5571	535.179604976	1.0
7.5674	535.226089394	1.0
7.5776	535.271873776	1.0
7.5878	535.317411977	1.0
7.5981	535.363148165	0.0
7.6083	535.408195586	1.0
7.6186	535.45343886	1.0
7.6288	535.498000789	0.0
7.639	535.542323111	2.0
7.6493	535.586838133	1.0
7.6595	535.630682778	0.0
7.6698	535.674718046	1.0
7.68	535.718090163	0.0
7.6902	535.761229069	0.0
7.7005	535.804555531	5.0
7.7107	535.847229514	1.0
7.721	535.890089032	2.0
7.7312	535.932303104	0.0
7.7414	535.974290192	1.0
7.7517	536.016459828	3.0
7.7619	536.057994407	3.0
7.7722	536.099709567	3.0
7.7824	536.140796514	0.0
7.7926	536.181662538	1.0
7.8029	536.222706235	2.0
7.8131	536.263131833	4.0
7.8234	536.303733188	3.0
7.8336	536.343723106	2.0
7.8438	536.383497998	2.0
7.8541	536.42344582	3.0
7.8643	536.462792045	1.0
7.8746	536.502309336	0.0
7.8848	536.541231514	2.0
7.895	536.579944408	1.0
7.9053	536.618825615	1.0
