TL-DOS Lehrstuhlversuch
detector=R1408206
job_number=2015-11-04-005
irradiation_dose [mSv]=0.08

[BEGIN DATA]
time [sec] 	 temperature [K] 	 photoncount 
0.0	139.849718665	0.0
0.0102	141.387964067	0.0
0.0205	142.935353101	1.0
0.0307	144.461861814	1.0
0.041	145.997444394	2.0
0.0512	147.512305969	1.0
0.0614	149.021405533	0.0
0.0717	150.53947548	2.0
0.0819	152.037060736	1.0
0.0922	153.543547932	0.0
0.1024	155.029706732	0.0
0.1126	156.510212698	0.0
0.1229	157.999519081	1.0
0.1331	159.468728905	1.0
0.1434	160.946672	0.0
0.1536	162.404671871	2.0
0.1638	163.857126014	0.0
0.1741	165.318213829	1.0
0.1843	166.759585864	0.0
0.1946	168.209525697	2.0
0.2048	169.639900179	0.0
0.215	171.06483401	0.0
0.2253	172.498237927	3.0
0.2355	173.912299628	1.0
0.2458	175.334766788	0.0
0.256	176.738039312	0.0
0.2662	178.135974272	0.0
0.2765	179.54221883	1.0
0.2867	180.929487659	0.0
0.297	182.325002684	0.0
0.3072	183.701686763	0.0
0.3174	185.07313441	0.0
0.3277	186.452734211	1.0
0.3379	187.813717824	0.0
0.3482	189.182791389	1.0
0.3584	190.533390806	0.0
0.3686	191.878853009	0.0
0.3789	193.232312902	0.0
0.3891	194.567509337	0.0
0.3994	195.91064244	0.0
0.4096	197.235651433	0.0
0.4198	198.55562055	0.0
0.4301	199.883435821	1.0
0.4403	201.193333679	0.0
0.4506	202.511017826	1.0
0.4608	203.810921269	1.0
0.471	205.105880327	0.0
0.4813	206.408536876	0.0
0.4915	207.693615502	0.0
0.5018	208.986332886	1.0
0.512	210.261606465	0.0
0.5222	211.532029343	0.0
0.5325	212.810003863	0.0
0.5427	214.070733517	0.0
0.553	215.338957195	0.0
0.5632	216.590067583	0.0
0.5734	217.836419179	0.0
0.5837	219.090179333	0.0
0.5939	220.327021366	0.0
0.6042	221.571215431	0.0
0.6144	222.798620459	0.0
0.6246	224.021356862	0.0
0.6349	225.25136145	0.0
0.6451	226.464768473	0.0
0.6554	227.685388224	0.0
0.6656	228.889537049	0.0
0.6758	230.089105708	0.0
0.6861	231.295804837	1.0
0.6963	232.486220883	0.0
0.7066	233.683712995	2.0
0.7168	234.865046262	0.0
0.727	236.041886145	0.0
0.7373	237.225721395	0.0
0.7475	238.393582085	0.0
0.7578	239.568384767	0.0
0.768	240.727334774	0.0
0.7782	241.881876534	0.0
0.7885	243.043281117	0.0
0.7987	244.189013817	0.0
0.809	245.341556977	0.0
0.8192	246.478547828	0.0
0.8294	247.611213959	0.0
0.8397	248.750612879	0.0
0.8499	249.874636859	0.0
0.8602	251.005342257	1.0
0.8704	252.120790024	0.0
0.8806	253.231995012	0.0
0.8909	254.349805221	0.0
0.9011	255.452531804	0.0
0.9114	256.561813211	0.0
0.9216	257.65612608	0.0
0.9318	258.74627656	0.0
0.9421	259.842907108	1.0
0.9523	260.924739828	0.0
0.9626	262.013003173	1.0
0.9728	263.086581597	0.0
0.983	264.156076498	0.0
0.9933	265.231928686	1.0
1.0035	266.293263428	0.0
1.0138	267.360906951	1.0
1.024	268.414143793	1.0
1.0342	269.463374487	1.0
1.0445	270.518842013	0.0
1.0547	271.56006716	0.0
1.065	272.607481554	0.0
1.0752	273.640762237	1.0
1.0854	274.670112677	0.0
1.0957	275.705581778	1.0
1.1059	276.727078357	0.0
1.1162	277.754646912	0.0
1.1264	278.768349555	0.0
1.1366	279.778196422	0.0
1.1469	280.794046017	0.0
1.1571	281.796187834	0.0
1.1674	282.804286579	0.0
1.1776	283.798782134	0.0
1.1878	284.789494972	0.0
1.1981	285.786096801	0.0
1.2083	286.76925058	0.0
1.2186	287.758248417	1.0
1.2288	288.733900811	0.0
1.239	289.705842161	0.0
1.2493	290.68356092	0.0
1.2595	291.648086435	0.0
1.2698	292.618345278	0.0
1.28	293.575511541	0.0
1.2902	294.529037074	0.0
1.3005	295.48823055	0.0
1.3107	296.434480759	0.0
1.321	297.386355666	1.0
1.3312	298.325386063	0.0
1.3414	299.260844712	0.0
1.3517	300.20186391	1.0
1.3619	301.130185086	1.0
1.3722	302.064024383	0.0
1.3824	302.985262543	2.0
1.3926	303.90299663	0.0
1.4029	304.826185908	1.0
1.4131	305.736917758	0.0
1.4234	306.653063176	0.0
1.4336	307.556846215	0.0
1.4438	308.457191576	0.0
1.4541	309.362888765	1.0
1.4643	310.256364563	1.0
1.4746	311.155151356	0.0
1.4848	312.041810005	1.0
1.495	312.925096111	1.0
1.5053	313.813632642	0.0
1.5155	314.690179346	0.0
1.5258	315.571936416	0.0
1.536	316.441795139	1.0
1.5462	317.308345219	2.0
1.5565	318.180046243	0.0
1.5667	319.039984617	1.0
1.577	319.905034632	0.0
1.5872	320.758411745	1.0
1.5974	321.608542905	0.0
1.6077	322.463727412	0.0
1.6179	323.30737214	0.0
1.6282	324.156031658	0.0
1.6384	324.993239445	0.0
1.6486	325.827262783	1.0
1.6589	326.666243718	0.0
1.6691	327.493903525	1.0
1.6794	328.326483103	0.0
1.6896	329.147827932	0.0
1.6998	329.966048648	1.0
1.7101	330.789133029	1.0
1.7203	331.601110787	0.0
1.7306	332.4179151	1.0
1.7408	333.223697534	3.0
1.751	334.026415049	1.0
1.7613	334.833904074	0.0
1.7715	335.630496919	3.0
1.7818	336.431824867	1.0
1.792	337.222339773	1.0
1.8022	338.009847833	0.0
1.8125	338.802036995	2.0
1.8227	339.583536431	1.0
1.833	340.369681254	0.0
1.8432	341.145217912	0.0
1.8534	341.917804697	1.0
1.8637	342.69498389	2.0
1.8739	343.4616759	1.0
1.8842	344.232925277	1.0
1.8944	344.993767489	0.0
1.9046	345.751715719	3.0
1.9149	346.514169342	1.0
1.9251	347.266334489	6.0
1.9354	348.022970652	0.0
1.9456	348.769396839	1.0
1.9558	349.512983878	2.0
1.9661	350.260990945	1.0
1.9763	350.998904475	0.0
1.9866	351.741204307	2.0
1.9968	352.473487616	2.0
2.007	353.202985572	0.0
2.0173	353.936819807	2.0
2.0275	354.660751753	1.0
2.0378	355.388986891	3.0
2.048	356.107395294	1.0
2.0582	356.82307112	1.0
2.0685	357.543001062	1.0
2.0787	358.253216339	0.0
2.089	358.967653274	1.0
2.0992	359.672449665	1.0
2.1094	360.374565254	1.0
2.1197	361.080854355	4.0
2.1299	361.777612858	4.0
2.1402	362.47851303	0.0
2.1504	363.169955322	1.0
2.1606	363.858767606	4.0
2.1709	364.551674326	3.0
2.1811	365.235231027	3.0
2.1914	365.922850924	4.0
2.2016	366.601192143	6.0
2.2118	367.276953187	1.0
2.2221	367.956731086	5.0
2.2323	368.627336127	6.0
2.2426	369.301927375	6.0
2.2528	369.967415754	2.0
2.263	370.630372844	3.0
2.2733	371.297270681	1.0
2.2835	371.955169462	7.0
2.2938	372.616978922	7.0
2.304	373.269857988	5.0
2.3142	373.920253728	1.0
2.3245	374.574515547	7.0
2.3347	375.21994882	6.0
2.345	375.869218674	5.0
2.3552	376.509727342	4.0
2.3654	377.147799737	4.0
2.3757	377.789664959	6.0
2.3859	378.422868912	6.0
2.3962	379.059836754	3.0
2.4064	379.688209413	5.0
2.4166	380.314191958	9.0
2.4269	380.943895467	4.0
2.4371	381.565101816	9.0
2.4474	382.190000737	9.0
2.4576	382.806467332	4.0
2.4678	383.4205891	9.0
2.4781	384.038361329	11.0
2.4883	384.647797398	8.0
2.4986	385.260856074	7.0
2.5088	385.865642195	8.0
2.519	386.468127918	15.0
2.5293	387.074194934	5.0
2.5395	387.672083739	15.0
2.5498	388.273526513	11.0
2.56	388.866853474	7.0
2.5702	389.457923625	10.0
2.5805	390.052507213	16.0
2.5907	390.639067546	8.0
2.601	391.229114509	18.0
2.6112	391.811199434	14.0
2.6214	392.391070309	18.0
2.6317	392.97438805	4.0
2.6419	393.549834557	10.0
2.6522	394.12870163	7.0
2.6624	394.699757526	9.0
2.6726	395.268641323	13.0
2.6829	395.840906677	13.0
2.6931	396.405449936	10.0
2.7034	396.97334895	11.0
2.7136	397.53358479	16.0
2.7238	398.091689686	20.0
2.7341	398.653112066	9.0
2.7443	399.206958666	16.0
2.7546	399.764097439	10.0
2.7648	400.313718234	6.0
2.775	400.861248462	16.0
2.7853	401.412033316	21.0
2.7955	401.955385932	16.0
2.8058	402.501968342	15.0
2.816	403.041175221	10.0
2.8262	403.578331143	8.0
2.8365	404.118680026	9.0
2.8467	404.651737491	21.0
2.857	405.187963555	19.0
2.8672	405.716953835	16.0
2.8774	406.243932019	13.0
2.8877	406.774042664	14.0
2.8979	407.297000047	8.0
2.9082	407.82306599	22.0
2.9184	408.34203325	14.0
2.9286	408.859026538	11.0
2.9389	409.379092935	17.0
2.9491	409.892141605	10.0
2.9594	410.408239937	13.0
2.9696	410.917374087	14.0
2.9798	411.424571667	8.0
2.9901	411.934784128	19.0
3.0003	412.438111831	11.0
3.0106	412.944431412	14.0
3.0208	413.443918765	14.0
3.031	413.941506241	6.0
3.0413	414.442051474	16.0
3.0515	414.935842397	11.0
3.0618	415.43256851	14.0
3.072	415.922591848	5.0
3.0822	416.410751306	9.0
3.0925	416.90181248	12.0
3.1027	417.386247321	8.0
3.113	417.873561738	7.0
3.1232	418.35430038	9.0
3.1334	418.833210458	17.0
3.1437	419.314967272	11.0
3.1539	419.790223305	11.0
3.1642	420.268304353	7.0
3.1744	420.73993422	13.0
3.1846	421.209770171	11.0
3.1949	421.682398918	6.0
3.2051	422.148650058	6.0
3.2154	422.617672686	7.0
3.2256	423.080366367	12.0
3.2358	423.541300121	4.0
3.2461	424.004973756	10.0
3.2563	424.462390623	8.0
3.2666	424.922526465	12.0
3.2768	425.376453278	9.0
3.287	425.828653509	9.0
3.2973	426.283541708	8.0
3.3075	426.732291688	13.0
3.3178	427.183709127	9.0
3.328	427.629035181	7.0
3.3382	428.072667369	7.0
3.3485	428.518936593	8.0
3.3587	428.959183902	9.0
3.369	429.402048128	9.0
3.3792	429.838936387	17.0
3.3894	430.274162873	11.0
3.3997	430.71197643	9.0
3.4099	431.143882173	13.0
3.4202	431.578355248	12.0
3.4304	432.006965585	6.0
3.4406	432.433945636	9.0
3.4509	432.86346374	10.0
3.4611	433.287185968	7.0
3.4714	433.713426883	16.0
3.4816	434.133916145	7.0
3.4918	434.55280601	15.0
3.5021	434.974185838	19.0
3.5123	435.389879607	12.0
3.5226	435.808044342	13.0
3.5328	436.220566401	1.0
3.543	436.631519368	23.0
3.5533	437.044915121	17.0
3.5635	437.45273255	17.0
3.5738	437.862974126	15.0
3.584	438.267679942	5.0
3.5942	438.670846396	15.0
3.6045	439.07640935	13.0
3.6147	439.476499677	14.0
3.625	439.878968218	14.0
3.6352	440.276005888	4.0
3.6454	440.671533363	20.0
3.6557	441.069411931	16.0
3.6659	441.461921563	14.0
3.6762	441.85676435	15.0
3.6864	442.246279165	23.0
3.6966	442.634312401	15.0
3.7069	443.024652182	17.0
3.7171	443.409724755	10.0
3.7274	443.797086275	13.0
3.7376	444.179220776	18.0
3.7478	444.559901768	8.0
3.7581	444.942845603	20.0
3.7683	445.320622031	12.0
3.7786	445.700644035	9.0
3.7888	446.075538059	15.0
3.799	446.449006115	9.0
3.8093	446.824694138	15.0
3.8195	447.195312663	14.0
3.8298	447.568134217	17.0
3.84	447.935924952	21.0
3.8502	448.302316739	10.0
3.8605	448.67088643	15.0
3.8707	449.034482676	16.0
3.881	449.40024021	15.0
3.8912	449.761062246	10.0
3.9014	450.12051184	20.0
3.9117	450.482098073	19.0
3.9219	450.838805095	20.0
3.9322	451.197632454	12.0
3.9424	451.551617831	10.0
3.9526	451.904256769	11.0
3.9629	452.258991862	11.0
3.9731	452.608940194	14.0
3.9834	452.960968687	18.0
3.9936	453.308246941	12.0
4.0038	453.654204268	18.0
4.0141	454.002218033	6.0
4.0243	454.345535734	15.0
4.0346	454.690894183	10.0
4.0448	455.031592397	10.0
4.055	455.370994713	14.0
4.0653	455.712414503	13.0
4.0755	456.049227206	11.0
4.0858	456.38804199	6.0
4.096	456.72228484	4.0
4.1062	457.055256346	13.0
4.1165	457.390207099	6.0
4.1267	457.720638058	10.0
4.137	458.053033164	18.0
4.1472	458.380942962	12.0
4.1574	458.707605504	10.0
4.1677	459.036209792	13.0
4.1779	459.360379925	7.0
4.1882	459.686476989	11.0
4.1984	460.008173731	10.0
4.2086	460.328646848	8.0
4.2189	460.651024921	15.0
4.2291	460.969052855	11.0
4.2394	461.288971209	15.0
4.2496	461.604572615	15.0
4.2598	461.918973583	15.0
4.2701	462.235243411	10.0
4.2803	462.547245524	13.0
4.2906	462.861102239	13.0
4.3008	463.170723801	16.0
4.311	463.47916767	7.0
4.3213	463.789444989	10.0
4.3315	464.095535456	11.0
4.3418	464.403445385	10.0
4.352	464.707200406	13.0
4.3622	465.009800048	9.0
4.3725	465.314198401	11.0
4.3827	465.614489232	5.0
4.393	465.91656505	13.0
4.4032	466.214564687	11.0
4.4134	466.511430835	10.0
4.4237	466.810061614	7.0
4.4339	467.104662697	9.0
4.4442	467.401014947	9.0
4.4544	467.693368248	14.0
4.4646	467.984609538	11.0
4.4749	468.277582023	15.0
4.4851	468.566601165	13.0
4.4954	468.857338294	10.0
4.5056	469.144152243	13.0
4.5158	469.429875252	9.0
4.5261	469.717296653	11.0
4.5363	470.000839618	13.0
4.5466	470.286068017	14.0
4.5568	470.567447572	14.0
4.567	470.847756856	8.0
4.5773	471.129732353	11.0
4.5875	471.4079029	12.0
4.5978	471.687726946	12.0
4.608	471.963775074	11.0
4.6182	472.23877321	10.0
4.6285	472.515405989	11.0
4.6387	472.788305911	14.0
4.649	473.062828004	12.0
4.6592	473.333645722	18.0
4.6694	473.603433342	13.0
4.6797	473.874824633	13.0
4.6899	474.142553796	13.0
4.7002	474.411874394	6.0
4.7104	474.677560805	14.0
4.7206	474.942236636	11.0
4.7309	475.208485752	14.0
4.7411	475.471142129	10.0
4.7514	475.735359786	13.0
4.7616	475.996012115	9.0
4.7718	476.255673012	11.0
4.7821	476.516877385	13.0
4.7923	476.774557091	8.0
4.8026	477.033768496	13.0
4.8128	477.289482126	17.0
4.823	477.54422311	13.0
4.8333	477.800478325	8.0
4.8435	478.053275655	5.0
4.8538	478.307575663	12.0
4.864	478.558444171	8.0
4.8742	478.808358461	5.0
4.8845	479.059758291	10.0
4.8947	479.307765755	18.0
4.905	479.557247424	16.0
4.9152	479.803362612	9.0
4.9254	480.048541662	10.0
4.9357	480.295178104	14.0
4.9459	480.538486458	14.0
4.9562	480.783241084	7.0
4.9664	481.024693015	13.0
4.9766	481.265226546	17.0
4.9869	481.507189855	6.0
4.9971	481.745888134	13.0
5.0074	481.986005283	8.0
5.0176	482.222882313	14.0
5.0278	482.458858346	6.0
5.0381	482.696237066	9.0
5.0483	482.93041262	9.0
5.0586	483.165980159	4.0
5.0688	483.398368972	11.0
5.079	483.629873859	9.0
5.0893	483.862754856	5.0
5.0995	484.092493379	12.0
5.1098	484.323597512	11.0
5.12	484.551583149	7.0
5.1302	484.778701606	11.0
5.1405	485.007170101	10.0
5.1507	485.232555663	11.0
5.161	485.459280961	7.0
5.1712	485.682946849	10.0
5.1814	485.90576199	11.0
5.1917	486.129901588	7.0
5.2019	486.351016667	8.0
5.2122	486.573446097	13.0
5.2224	486.792874086	15.0
5.2326	487.011467446	11.0
5.2429	487.231360168	7.0
5.2531	487.448285679	17.0
5.2634	487.666500637	8.0
5.2736	487.881771024	16.0
5.2838	488.096222596	5.0
5.2941	488.31194891	11.0
5.3043	488.524764234	4.0
5.3146	488.738844574	8.0
5.3248	488.950036135	10.0
5.335	489.160424395	15.0
5.3453	489.372063244	15.0
5.3555	489.580846259	11.0
5.3658	489.790870321	9.0
5.376	489.998060339	8.0
5.3862	490.204462277	17.0
5.3965	490.412091108	7.0
5.4067	490.616918216	6.0
5.417	490.822962856	14.0
5.4272	491.026227149	10.0
5.4374	491.228718296	4.0
5.4477	491.432413089	13.0
5.4579	491.633359244	12.0
5.4682	491.835499862	10.0
5.4784	492.034912814	13.0
5.4886	492.233567268	6.0
5.4989	492.433402563	12.0
5.5091	492.6305413	10.0
5.5194	492.828851868	8.0
5.5296	493.024486451	9.0
5.5398	493.219376909	7.0
5.5501	493.415425833	10.0
5.5603	493.608829292	8.0
5.5706	493.803382379	12.0
5.5808	493.995310185	5.0
5.591	494.186507964	13.0
5.6013	494.37884226	9.0
5.6115	494.568581215	6.0
5.6218	494.759448016	7.0
5.632	494.947739278	10.0
5.6422	495.135314345	7.0
5.6525	495.324004396	7.0
5.6627	495.51014828	6.0
5.673	495.697398641	10.0
5.6832	495.882122262	8.0
5.6934	496.066143259	7.0
5.7037	496.251258113	7.0
5.7139	496.433875044	13.0
5.7242	496.617577487	7.0
5.7344	496.798801066	10.0
5.7446	496.979335333	8.0
5.7549	497.160942731	15.0
5.7651	497.340099536	8.0
5.7754	497.520321284	9.0
5.7856	497.698111137	12.0
5.7958	497.875224739	8.0
5.8061	498.053391139	12.0
5.8163	498.229153378	8.0
5.8266	498.405960382	9.0
5.8368	498.58038157	9.0
5.847	498.754139319	6.0
5.8573	498.928929919	8.0
5.8675	499.101361911	7.0
5.8778	499.274818872	11.0
5.888	499.445935222	9.0
5.8982	499.616400704	11.0
5.9085	499.787879466	9.0
5.9187	499.957044311	13.0
5.929	500.127214704	17.0
5.9392	500.295088834	9.0
5.9494	500.462324429	14.0
5.9597	500.630554105	7.0
5.9699	500.796513705	10.0
5.9802	500.963459802	12.0
5.9904	501.128153145	4.0
6.0006	501.29222005	4.0
6.0109	501.457262202	12.0
6.0211	501.62007729	4.0
6.0314	501.783860183	10.0
6.0416	501.945433006	9.0
6.0518	502.106391261	10.0
6.0621	502.268306283	8.0
6.0723	502.42803644	9.0
6.0826	502.588716064	2.0
6.0928	502.747227492	8.0
6.103	502.905135998	7.0
6.1133	503.063983142	13.0
6.1235	503.220686819	2.0
6.1338	503.378321972	3.0
6.144	503.533830012	7.0
6.1542	503.688746553	12.0
6.1645	503.844583948	7.0
6.1747	503.998318489	2.0
6.185	504.152966857	7.0
6.1952	504.305528415	5.0
6.2054	504.457509682	9.0
6.2157	504.610394355	9.0
6.2259	504.761216016	6.0
6.2362	504.912934192	2.0
6.2464	505.062605096	8.0
6.2566	505.211706704	12.0
6.2669	505.361694602	7.0
6.2771	505.509658576	6.0
6.2874	505.658502078	7.0
6.2976	505.8053371	7.0
6.3078	505.951613612	5.0
6.3181	506.09875962	7.0
6.3283	506.243920054	12.0
6.3386	506.389943349	8.0
6.3488	506.533996221	11.0
6.359	506.677501165	10.0
6.3693	506.82185913	4.0
6.3795	506.964269143	5.0
6.3898	507.107525669	10.0
6.4	507.248849105	7.0
6.4102	507.389634995	3.0
6.4205	507.531257745	3.0
6.4307	507.67096945	9.0
6.441	507.811511629	9.0
6.4512	507.950157345	6.0
6.4614	508.088275701	5.0
6.4717	508.227215059	5.0
6.4819	508.364279583	3.0
6.4922	508.502158845	6.0
6.5024	508.638177578	7.0
6.5126	508.773678942	4.0
6.5229	508.909985753	4.0
6.5331	509.044453253	2.0
6.5434	509.179720054	4.0
6.5536	509.313161577	5.0
6.5638	509.446095535	3.0
6.5741	509.579819679	5.0
6.5843	509.711739361	3.0
6.5946	509.8444432	6.0
6.6048	509.975356346	2.0
6.615	510.105771544	4.0
6.6253	510.236961955	4.0
6.6355	510.366382095	2.0
6.6458	510.496571534	2.0
6.656	510.625004209	3.0
6.6662	510.75294837	6.0
6.6765	510.881653057	0.0
6.6867	511.008621015	8.0
6.697	511.136343695	4.0
6.7072	511.262342897	3.0
6.7174	511.387862842	5.0
6.7277	511.514128902	2.0
6.7379	511.63869114	4.0
6.7482	511.7639938	4.0
6.7584	511.887605638	2.0
6.7686	512.010747299	5.0
6.7789	512.134620938	3.0
6.7891	512.256823039	1.0
6.7994	512.379751532	3.0
6.8096	512.50102124	4.0
6.8198	512.62182968	3.0
6.8301	512.743356229	6.0
6.8403	512.86324291	3.0
6.8506	512.983842221	2.0
6.8608	513.102814177	4.0
6.871	513.221333604	2.0
6.8813	513.340557534	3.0
6.8915	513.458172668	5.0
6.9018	513.576486929	6.0
6.912	513.693204668	0.0
6.9222	513.809478454	3.0
6.9325	513.926443393	3.0
6.9427	514.041830019	6.0
6.953	514.157902526	2.0
6.9632	514.272408761	3.0
6.9734	514.386479454	2.0
6.9837	514.501228206	4.0
6.9939	514.614428549	1.0
7.0042	514.728301777	2.0
7.0144	514.84063841	3.0
7.0246	514.952547754	2.0
7.0349	515.065122308	0.0
7.0451	515.176177792	4.0
7.0554	515.287893412	4.0
7.0656	515.398101552	1.0
7.0758	515.507890498	4.0
7.0861	515.618332051	3.0
7.0963	515.727283317	1.0
7.1066	515.83688221	1.0
7.1168	515.945002186	1.0
7.127	516.05271091	0.0
7.1373	516.161059877	4.0
7.1475	516.267946793	1.0
7.1578	516.375469066	2.0
7.168	516.481540443	0.0
7.1782	516.587208361	1.0
7.1885	516.693504391	1.0
7.1987	516.798366071	0.0
7.209	516.90385107	2.0
7.2192	517.007912665	1.0
7.2294	517.111578445	2.0
7.2397	517.215860435	1.0
7.2499	517.318735254	2.0
7.2602	517.42222158	2.0
7.2704	517.524311472	2.0
7.2806	517.62601305	4.0
7.2909	517.728319161	2.0
7.3011	517.829244763	1.0
7.3114	517.930770287	1.0
7.3216	518.030925836	1.0
7.3318	518.130700427	2.0
7.3421	518.231068098	3.0
7.3523	518.330081417	1.0
7.3626	518.42968329	3.0
7.3728	518.527941145	0.0
7.383	518.625825262	2.0
7.3933	518.72429122	5.0
7.4035	518.821428489	1.0
7.4138	518.91914316	0.0
7.424	519.015539279	0.0
7.4342	519.11156874	2.0
7.4445	519.20816902	1.0
7.4547	519.303465784	2.0
7.465	519.399329011	1.0
7.4752	519.493898668	0.0
7.4854	519.588108616	0.0
7.4957	519.682878565	2.0
7.5059	519.776369698	2.0
7.5162	519.870416561	1.0
7.5264	519.963194364	0.0
7.5366	520.055619272	1.0
7.5469	520.148593572	2.0
7.5571	520.240313286	3.0
7.5674	520.3325782	1.0
7.5776	520.4235981	0.0
7.5878	520.514271791	1.0
7.5981	520.605484465	2.0
7.6083	520.695466323	1.0
7.6186	520.785983051	1.0
7.6288	520.875278355	0.0
7.639	520.964234011	0.0
7.6493	521.053718436	0.0
7.6595	521.141995368	1.0
7.6698	521.230797034	1.0
7.68	521.318400419	2.0
7.6902	521.405670592	3.0
7.7005	521.493459515	0.0
7.7107	521.580063822	2.0
7.721	521.667182923	2.0
7.7312	521.753126447	3.0
7.7414	521.838743072	1.0
7.7517	521.924868618	0.0
7.7619	522.009831994	0.0
7.7722	522.09530041	1.0
7.7824	522.179615522	2.0
7.7926	522.26360993	2.0
7.8029	522.348103616	2.0
7.8131	522.431457152	0.0
7.8234	522.515306159	1.0
7.8336	522.598023715	0.0
7.8438	522.680426641	0.0
7.8541	522.763319387	0.0
7.8643	522.845093586	1.0
7.8746	522.927353867	1.0
7.8848	523.008504136	1.0
7.895	523.089345736	1.0
7.9053	523.170667876	0.0
7.9155	523.250892662	0.0
7.9258	523.331594319	3.0
7.936	523.411206997	0.0
7.9462	523.490516855	1.0
7.9565	523.570298146	2.0
7.9667	523.649002877	0.0
7.977	523.728175443	0.0
7.9872	523.806279663	1.0
7.9974	523.884086801	3.0
8.0077	523.96235644	1.0
8.0179	524.039569916	1.0
8.0282	524.117242363	0.0
8.0384	524.193866707	1.0
8.0486	524.270199597	0.0
8.0589	524.346986226	0.0
8.0691	524.422736703	0.0
8.0794	524.498937455	0.0
8.0896	524.574109962	3.0
8.0998	524.648996539	1.0
