TL-DOS Lehrstuhlversuch
detector=R1407302
job_number=2015-10-26-007
irradiation_dose [mSv]=10.0

[BEGIN DATA]
time [sec] 	 temperature [K] 	 photoncount 
0.0	105.197159103	0.0
0.0102	107.231285412	0.0
0.0205	109.275794459	0.0
0.0307	111.291031028	3.0
0.041	113.316553916	1.0
0.0512	115.313076162	1.0
0.0614	117.30035174	0.0
0.0717	119.297770918	0.0
0.0819	121.266591831	1.0
0.0922	123.245462145	2.0
0.1024	125.195999771	0.0
0.1126	127.137503701	2.0
0.1229	129.088917599	1.0
0.1331	131.012391919	0.0
0.1434	132.945684178	0.0
0.1536	134.851296318	0.0
0.1638	136.748082829	1.0
0.1741	138.654551059	0.0
0.1843	140.533723224	0.0
0.1946	142.422487199	0.0
0.2048	144.284208592	0.0
0.215	146.137307632	2.0
0.2253	147.999865398	0.0
0.2355	149.835755792	1.0
0.2458	151.681017074	1.0
0.256	153.499858628	0.0
0.2662	155.310276423	0.0
0.2765	157.129935086	0.0
0.2867	158.92354059	0.0
0.297	160.726301149	0.0
0.3072	162.503250488	1.0
0.3174	164.271970087	0.0
0.3277	166.049717716	1.0
0.3379	167.802012251	0.0
0.3482	169.563250978	1.0
0.3584	171.29927298	0.0
0.3686	173.027254791	0.0
0.3789	174.764056695	0.0
0.3891	176.47599175	0.0
0.3994	178.196664992	0.0
0.4096	179.892702308	0.0
0.4198	181.580884619	0.0
0.4301	183.277683875	0.0
0.4403	184.950189025	0.0
0.4506	186.631231099	0.0
0.4608	188.288204673	0.0
0.471	189.937504159	0.0
0.4813	191.595222123	0.0
0.4915	193.229205531	0.0
0.5018	194.871529238	0.0
0.512	196.490338798	0.0
0.5222	198.101651024	0.0
0.5325	199.72118783	0.0
0.5427	201.317536742	0.0
0.553	202.922033857	0.0
0.5632	204.503558412	0.0
0.5734	206.077758314	0.0
0.5837	207.659993363	0.0
0.5939	209.219574592	0.0
0.6042	210.787116351	0.0
0.6144	212.332214661	0.0
0.6246	213.870157023	0.0
0.6349	215.415949464	0.0
0.6451	216.939609855	0.0
0.6554	218.471047427	1.0
0.6656	219.980558476	0.0
0.6758	221.483078394	1.0
0.6861	222.993267586	0.0
0.6963	224.481834482	0.0
0.7066	225.977999431	0.0
0.7168	227.452742877	1.0
0.727	228.920656214	0.0
0.7373	230.396062184	0.0
0.7475	231.85034387	0.0
0.7578	233.312048608	0.0
0.768	234.752825231	0.0
0.7782	236.18692906	0.0
0.7885	237.628352947	0.0
0.7987	239.049139092	0.0
0.809	240.47717732	0.0
0.8192	241.884769456	0.0
0.8294	243.285842487	0.0
0.8397	244.69406698	0.0
0.8499	246.082129066	0.0
0.8602	247.477276202	0.0
0.8704	248.852448168	0.0
0.8806	250.221251181	0.0
0.8909	251.597040938	0.0
0.9011	252.953132678	0.0
0.9114	254.316146282	0.0
0.9216	255.659644791	0.0
0.9318	256.996921039	1.0
0.9421	258.341023111	1.0
0.9523	259.665880857	0.0
0.9626	260.997501039	0.0
0.9728	262.310055607	1.0
0.983	263.616531225	0.0
0.9933	264.929675453	0.0
1.0035	266.224018597	0.0
1.0138	267.524968424	0.0
1.024	268.807291761	1.0
1.0342	270.083676162	0.0
1.0445	271.366575578	2.0
1.0547	272.631106944	0.0
1.065	273.902092825	0.0
1.0752	275.154881228	0.0
1.0854	276.401867483	1.0
1.0957	277.655218698	0.0
1.1059	278.890624921	0.0
1.1162	280.132336997	1.0
1.1264	281.356270726	1.0
1.1366	282.574535943	0.0
1.1469	283.799019521	2.0
1.1571	285.005971422	0.0
1.1674	286.219083937	2.0
1.1776	287.414827583	1.0
1.1878	288.605033277	0.0
1.1981	289.801314107	1.0
1.2083	290.980467057	1.0
1.2186	292.165638727	1.0
1.2288	293.333841574	1.0
1.239	294.49663402	1.0
1.2493	295.665361679	1.0
1.2595	296.817355953	0.0
1.2698	297.975230321	2.0
1.28	299.116526699	2.0
1.2902	300.252537291	4.0
1.3005	301.394346392	4.0
1.3107	302.519807518	1.0
1.321	303.651013307	1.0
1.3312	304.766022934	3.0
1.3414	305.87586852	1.0
1.3517	306.991379063	6.0
1.3619	308.090918162	5.0
1.3722	309.196069611	7.0
1.3824	310.285397935	5.0
1.3926	311.369681157	3.0
1.4029	312.459498858	7.0
1.4131	313.533712976	5.0
1.4234	314.613410178	12.0
1.4336	315.677648699	7.0
1.4438	316.736958319	7.0
1.4541	317.801674946	12.0
1.4643	318.851147377	5.0
1.4746	319.905976604	9.0
1.4848	320.945703199	10.0
1.495	321.980614418	5.0
1.5053	323.020808107	19.0
1.5155	324.046108711	15.0
1.5258	325.07664273	12.0
1.536	326.092421967	15.0
1.5462	327.103496737	16.0
1.5565	328.11973231	17.0
1.5667	329.121417821	15.0
1.577	330.128216209	22.0
1.5872	331.120599652	19.0
1.5974	332.108386984	21.0
1.6077	333.101216252	33.0
1.6179	334.079830581	30.0
1.6282	335.063440025	33.0
1.6384	336.032966535	17.0
1.6486	336.998002793	34.0
1.6589	337.967964859	31.0
1.6691	338.92403939	43.0
1.6794	339.884993987	34.0
1.6896	340.832190012	54.0
1.6998	341.774999206	37.0
1.7101	342.722620757	38.0
1.7203	343.656674634	46.0
1.7306	344.595496178	56.0
1.7408	345.520876043	51.0
1.751	346.441970116	55.0
1.7613	347.367765705	74.0
1.7715	348.280306116	63.0
1.7818	349.197504383	57.0
1.792	350.101570566	72.0
1.8022	351.001449667	88.0
1.8125	351.905921999	96.0
1.8227	352.79744445	102.0
1.833	353.693517476	114.0
1.8432	354.57676088	113.0
1.8534	355.455913642	104.0
1.8637	356.33955384	152.0
1.8739	357.210542424	143.0
1.8842	358.085976773	137.0
1.8944	358.948876997	133.0
1.9046	359.807780795	169.0
1.9149	360.671068673	182.0
1.9251	361.521996334	210.0
1.9354	362.377267364	217.0
1.9456	363.220292958	209.0
1.9558	364.059414174	210.0
1.9661	364.902818494	237.0
1.9763	365.734147283	243.0
1.9866	366.569719401	251.0
1.9968	367.393328126	266.0
2.007	368.213122399	301.0
2.0173	369.037101127	340.0
2.0275	369.849282451	337.0
2.0378	370.665609371	351.0
2.048	371.470248443	371.0
2.0582	372.271160919	438.0
2.0685	373.076161471	425.0
2.0787	373.869636342	439.0
2.089	374.667161326	454.0
2.0992	375.45326766	493.0
2.1094	376.235733231	482.0
2.1197	377.022192721	588.0
2.1299	377.797391992	565.0
2.1402	378.576548093	644.0
2.1504	379.344548542	619.0
2.1606	380.108992084	658.0
2.1709	380.877337555	746.0
2.1811	381.634682157	737.0
2.1914	382.395892453	735.0
2.2016	383.146204039	783.0
2.2118	383.893040641	817.0
2.2221	384.643689303	846.0
2.2323	385.38359047	902.0
2.2426	386.127268297	938.0
2.2528	386.860298436	970.0
2.263	387.589933628	1032.0
2.2733	388.323293078	1061.0
2.2835	389.046152576	1111.0
2.2938	389.772701746	1155.0
2.304	390.48884847	1160.0
2.3142	391.201678442	1211.0
2.3245	391.918146892	1199.0
2.3347	392.624357229	1246.0
2.345	393.334172257	1326.0
2.3552	394.033824432	1338.0
2.3654	394.730236246	1382.0
2.3757	395.430202737	1369.0
2.3859	396.120147382	1515.0
2.3962	396.813613694	1481.0
2.4064	397.497151228	1498.0
2.4166	398.177523034	1610.0
2.4269	398.861367644	1594.0
2.4371	399.535421236	1616.0
2.4474	400.212915382	1497.0
2.4576	400.880709432	1556.0
2.4678	401.545410669	1553.0
2.4781	402.213504724	1643.0
2.4883	402.87203327	1686.0
2.4986	403.533923126	1607.0
2.5088	404.186336303	1606.0
2.519	404.835727902	1603.0
2.5293	405.488434173	1661.0
2.5395	406.131795252	1595.0
2.5498	406.778440223	1595.0
2.56	407.415826784	1555.0
2.5702	408.050261361	1554.0
2.5805	408.687934266	1532.0
2.5907	409.316477221	1535.0
2.601	409.948228431	1456.0
2.6112	410.570934475	1437.0
2.6214	411.190756526	1394.0
2.6317	411.813742319	1353.0
2.6419	412.427808445	1346.0
2.6522	413.045008934	1372.0
2.6624	413.653372587	1334.0
2.6726	414.258918674	1212.0
2.6829	414.867555633	1231.0
2.6931	415.467478367	1150.0
2.7034	416.070463271	1124.0
2.7136	416.664814874	1163.0
2.7238	417.256413804	1111.0
2.7341	417.851032417	1012.0
2.7443	418.437137514	1013.0
2.7546	419.026234253	1006.0
2.7648	419.606896535	987.0
2.775	420.184869545	1019.0
2.7853	420.765792688	976.0
2.7955	421.338398401	928.0
2.8058	421.913926851	898.0
2.816	422.48121511	925.0
2.8262	423.045876037	929.0
2.8365	423.613419149	985.0
2.8467	424.1728364	946.0
2.857	424.735109071	896.0
2.8672	425.289331343	964.0
2.8774	425.840986796	981.0
2.8877	426.39545805	999.0
2.8979	426.941990602	1046.0
2.9082	427.491312805	1006.0
2.9184	428.032770029	1049.0
2.9286	428.571719555	1172.0
2.9389	429.113420027	1047.0
2.9491	429.647364644	1162.0
2.9594	430.184034661	1172.0
2.9696	430.713020847	1176.0
2.9798	431.239557093	1225.0
2.9901	431.768780924	1278.0
3.0003	432.290427536	1298.0
3.0106	432.814736775	1302.0
3.0208	433.331539161	1335.0
3.031	433.845948034	1393.0
3.0413	434.362982591	1378.0
3.0515	434.87261445	1463.0
3.0618	435.38484761	1466.0
3.072	435.889746816	1515.0
3.0822	436.392307638	1513.0
3.0925	436.897433669	1509.0
3.1027	437.395327503	1543.0
3.113	437.895762724	1671.0
3.1232	438.38903291	1628.0
3.1334	438.88001857	1634.0
3.1437	439.373510356	1742.0
3.1539	439.85993652	1673.0
3.1642	440.348845536	1682.0
3.1744	440.830754545	1705.0
3.1846	441.310431647	1725.0
3.1949	441.792557151	1783.0
3.2051	442.267779772	1782.0
3.2154	442.74542806	1835.0
3.2256	443.216237567	1862.0
3.2358	443.684866572	1830.0
3.2461	444.155887589	1900.0
3.2563	444.620164711	1866.0
3.2666	445.086811631	1862.0
3.2768	445.546777283	1857.0
3.287	446.004612656	1865.0
3.2973	446.464784946	1819.0
3.3075	446.918368671	1870.0
3.3178	447.37426761	1903.0
3.328	447.823639168	1838.0
3.3382	448.270929511	1799.0
3.3485	448.720502948	1838.0
3.3587	449.163639568	1837.0
3.369	449.609038079	1845.0
3.3792	450.048059548	1804.0
3.3894	450.485047739	1787.0
3.3997	450.924266438	1799.0
3.4099	451.357196576	1760.0
3.4202	451.792336507	1807.0
3.4304	452.221246276	1723.0
3.4406	452.648169598	1710.0
3.4509	453.077272053	1728.0
3.4611	453.500230788	1641.0
3.4714	453.925348419	1642.0
3.4816	454.344379384	1667.0
3.4918	454.761469653	1613.0
3.5021	455.180688866	1621.0
3.5123	455.593905862	1667.0
3.5226	456.009232032	1615.0
3.5328	456.418611724	1594.0
3.543	456.82609542	1558.0
3.5533	457.235659024	1581.0
3.5635	457.639358658	1627.0
3.5738	458.045118885	1481.0
3.584	458.445069596	1525.0
3.5942	458.84316798	1494.0
3.6045	459.243298368	1452.0
3.6147	459.637699846	1403.0
3.625	460.034114457	1383.0
3.6352	460.42485336	1414.0
3.6454	460.813782599	1510.0
3.6557	461.204697039	1496.0
3.6659	461.59001452	1436.0
3.6762	461.977298767	1427.0
3.6864	462.359038029	1479.0
3.6966	462.73900931	1503.0
3.7069	463.120920068	1400.0
3.7171	463.497362778	1375.0
3.7274	463.875726954	1377.0
3.7376	464.24867386	1455.0
3.7478	464.619893505	1371.0
3.7581	464.993007957	1456.0
3.7683	465.360780302	1394.0
3.7786	465.730429858	1440.0
3.7888	466.094786917	1431.0
3.799	466.457456497	1389.0
3.8093	466.821977242	1454.0
3.8195	467.181278922	1445.0
3.8298	467.542414577	1352.0
3.84	467.898379632	1389.0
3.8502	468.252696076	1415.0
3.8605	468.608821047	1375.0
3.8707	468.959847162	1493.0
3.881	469.312665009	1361.0
3.8912	469.660431349	1442.0
3.9014	470.006587049	1429.0
3.9117	470.354509622	1450.0
3.9219	470.697450776	1428.0
3.9322	471.042142395	1524.0
3.9424	471.381898855	1424.0
3.9526	471.720081772	1411.0
3.9629	472.059990867	1403.0
3.9731	472.395033276	1377.0
3.9834	472.731785834	1356.0
3.9936	473.063716901	1405.0
4.0038	473.394110667	1369.0
4.0141	473.726190853	1375.0
4.0243	474.053516445	1407.0
4.0346	474.382512796	1364.0
4.0448	474.706798707	1403.0
4.055	475.029582724	1388.0
4.0653	475.354014319	1411.0
4.0755	475.67380083	1348.0
4.0858	475.995219619	1405.0
4.096	476.31203646	1487.0
4.1062	476.627385999	1388.0
4.1165	476.944345169	1361.0
4.1267	477.256766242	1359.0
4.137	477.570781997	1390.0
4.1472	477.880301798	1361.0
4.1574	478.188388093	1357.0
4.1677	478.498046945	1381.0
4.1779	478.803272222	1455.0
4.1882	479.110055454	1378.0
4.1984	479.412446283	1327.0
4.2086	479.713436623	1285.0
4.2189	480.015963301	1341.0
4.2291	480.31415852	1284.0
4.2394	480.613875809	1327.0
4.2496	480.909301864	1219.0
4.2598	481.203359686	1298.0
4.2701	481.49891846	1317.0
4.2803	481.790245539	1243.0
4.2906	482.083059631	1260.0
4.3008	482.371681327	1236.0
4.311	482.658966303	1256.0
4.3213	482.94771766	1226.0
4.3315	483.232334789	1188.0
4.3418	483.518404682	1263.0
4.352	483.800378738	1172.0
4.3622	484.081046863	1190.0
4.3725	484.363147596	1241.0
4.3827	484.64120932	1250.0
4.393	484.920690348	1204.0
4.4032	485.196169876	1229.0
4.4134	485.470373551	1182.0
4.4237	485.745976838	1190.0
4.4339	486.017634144	1173.0
4.4442	486.290678064	1165.0
4.4544	486.559812648	1185.0
4.4646	486.827700766	1125.0
4.4749	487.096956258	1203.0
4.4851	487.362356656	1130.0
4.4954	487.629111729	1108.0
4.5056	487.892047509	1125.0
4.5158	488.153765531	1079.0
4.5261	488.416819433	1115.0
4.5363	488.676107033	1182.0
4.5466	488.936718108	1113.0
4.5568	489.193597855	1061.0
4.567	489.449287893	1081.0
4.5773	489.706283043	1127.0
4.5875	489.959598638	1088.0
4.5978	490.214207224	1165.0
4.608	490.465170425	1058.0
4.6182	490.714971317	1093.0
4.6285	490.966047263	1072.0
4.6387	491.213528401	1090.0
4.649	491.46227275	1088.0
4.6592	491.707455676	1072.0
4.6694	491.951503065	1055.0
4.6797	492.196796138	1098.0
4.6899	492.438577201	1101.0
4.7002	492.681592381	1082.0
4.7104	492.921128165	1078.0
4.7206	493.159554566	1077.0
4.7309	493.399197961	1119.0
4.7411	493.635410236	1120.0
4.7514	493.872828203	1074.0
4.7616	494.106846912	1091.0
4.7718	494.33978179	1066.0
4.7821	494.573905632	1084.0
4.7923	494.80467738	1112.0
4.8026	495.036627051	1101.0
4.8128	495.265255757	1058.0
4.823	495.492825595	1096.0
4.8333	495.721557012	1059.0
4.8435	495.947013542	1049.0
4.8538	496.173620864	1028.0
4.864	496.396983711	1058.0
4.8742	496.619312079	1149.0
4.8845	496.842775271	1058.0
4.8947	497.063039005	1066.0
4.905	497.284427026	1074.0
4.9152	497.502645299	1136.0
4.9254	497.71985292	1093.0
4.9357	497.938169227	992.0
4.9459	498.153359768	1054.0
4.9562	498.369648699	1062.0
4.9664	498.582840891	1068.0
4.9766	498.795045707	1120.0
4.9869	499.008333675	1013.0
4.9971	499.218567869	1050.0
5.0074	499.429875156	1040.0
5.0176	499.638157028	1044.0
5.0278	499.845474266	1080.0
5.0381	500.053849708	1062.0
5.0483	500.259241713	1022.0
5.0586	500.465682094	1048.0
5.0688	500.669166743	1078.0
5.079	500.871708976	1052.0
5.0893	501.07528504	1018.0
5.0995	501.275946381	1016.0
5.1098	501.477631953	1036.0
5.12	501.676429871	1087.0
5.1302	501.874307077	1004.0
5.1405	502.073194304	1038.0
5.1507	502.269233941	984.0
5.161	502.466274218	989.0
5.1712	502.66049335	1045.0
5.1814	502.853812978	1001.0
5.1917	503.048119362	973.0
5.2019	503.239643744	1017.0
5.2122	503.432145718	964.0
5.2224	503.621891525	969.0
5.2326	503.810758545	924.0
5.2429	504.000589595	1008.0
5.2531	504.187702718	940.0
5.2634	504.375770917	961.0
5.2736	504.56114643	908.0
5.2838	504.745663397	932.0
5.2941	504.931122189	946.0
5.3043	505.113925655	844.0
5.3146	505.2976622	887.0
5.3248	505.478768077	869.0
5.335	505.659035183	864.0
5.3453	505.840222422	932.0
5.3555	506.018815492	863.0
5.3658	506.198320151	838.0
5.376	506.375254732	840.0
5.3862	506.551369861	784.0
5.3965	506.728383929	858.0
5.4067	506.90286358	784.0
5.417	507.078233822	808.0
5.4272	507.251093183	785.0
5.4374	507.423151964	755.0
5.4477	507.596088981	807.0
5.4579	507.766549953	715.0
5.4682	507.937881005	773.0
5.4784	508.106759006	717.0
5.4886	508.274854868	709.0
5.4989	508.443808737	720.0
5.5091	508.61034359	674.0
5.5194	508.777728484	682.0
5.5296	508.942716826	668.0
5.5398	509.106941043	670.0
5.5501	509.272003505	642.0
5.5603	509.434702668	625.0
5.5706	509.598232292	599.0
5.5808	509.759420563	589.0
5.591	509.919862309	593.0
5.6013	510.081122993	589.0
5.6115	510.24007481	542.0
5.6218	510.399837961	597.0
5.632	510.557313686	537.0
5.6422	510.714060079	560.0
5.6525	510.871606549	481.0
5.6627	511.026897331	521.0
5.673	511.182980759	525.0
5.6832	511.336829446	500.0
5.6934	511.4899656	473.0
5.7037	511.643883403	451.0
5.7139	511.795597471	447.0
5.7242	511.94808593	411.0
5.7344	512.098391118	460.0
5.7446	512.248000185	437.0
5.7549	512.398372898	434.0
5.7651	512.546592633	368.0
5.7754	512.695568922	367.0
5.7856	512.842412227	351.0
5.7958	512.988575444	362.0
5.8061	513.135484718	338.0
5.8163	513.280290603	384.0
5.8266	513.425835616	329.0
5.8368	513.569296773	332.0
5.847	513.712093506	301.0
5.8573	513.855619113	320.0
5.8675	513.997089776	293.0
5.8778	514.139282545	286.0
5.888	514.279439453	291.0
5.8982	514.41894724	277.0
5.9085	514.559167113	263.0
5.9187	514.697379373	244.0
5.929	514.836297106	229.0
5.9392	514.97322587	234.0
5.9494	515.109520463	220.0
5.9597	515.246510742	227.0
5.9699	515.381539647	202.0
5.9802	515.517257777	191.0
5.9904	515.651032748	209.0
6.0006	515.784188155	190.0
6.0109	515.918023224	210.0
6.0211	516.049942095	162.0
6.0314	516.182534316	181.0
6.0416	516.313228133	172.0
6.0518	516.443316657	157.0
6.0621	516.574069188	159.0
6.0723	516.702949656	160.0
6.0826	516.832487965	158.0
6.0928	516.960171596	141.0
6.103	517.087263874	160.0
6.1133	517.215004865	155.0
6.1235	517.340916912	123.0
6.1338	517.467471648	124.0
6.144	517.592214423	123.0
6.1542	517.716379466	128.0
6.1645	517.841178281	128.0
6.1747	517.964190276	112.0
6.185	518.087830157	117.0
6.1952	518.209699812	114.0
6.2054	518.331005041	92.0
6.2157	518.452929444	94.0
6.2259	518.573108183	100.0
6.2362	518.693900346	95.0
6.2464	518.812963054	80.0
6.2566	518.931474337	63.0
6.2669	519.050590535	84.0
6.2771	519.168001273	86.0
6.2874	519.286011307	69.0
6.2976	519.402331721	76.0
6.3078	519.518113409	55.0
6.3181	519.634486079	58.0
6.3283	519.74919257	63.0
6.3386	519.864484555	64.0
6.3488	519.978125835	57.0
6.359	520.091240798	50.0
6.3693	520.20493313	54.0
6.3795	520.316997661	58.0
6.3898	520.429634199	51.0
6.4	520.540658052	39.0
6.4102	520.65116771	49.0
6.4205	520.762241439	57.0
6.4307	520.871724859	50.0
6.441	520.981767112	47.0
6.4512	521.090233823	33.0
6.4614	521.198198183	46.0
6.4717	521.306713623	57.0
6.4819	521.413675381	47.0
6.4922	521.521183101	50.0
6.5024	521.627151568	30.0
6.5126	521.732629253	33.0
6.5229	521.838645326	36.0
6.5331	521.943143502	33.0
6.5434	522.048175066	39.0
6.5536	522.151702829	28.0
6.5638	522.254751114	27.0
6.5741	522.358325387	34.0
6.5843	522.460416723	27.0
6.5946	522.563029162	21.0
6.6048	522.664172436	31.0
6.615	522.764847276	23.0
6.6253	522.866035989	31.0
6.6355	522.965775921	28.0
6.6458	523.066024953	28.0
6.656	523.164838658	25.0
6.6662	523.263194719	29.0
6.6765	523.362052817	28.0
6.6867	523.459495503	20.0
6.697	523.557435563	20.0
6.7072	523.653973356	21.0
6.7174	523.750064045	16.0
6.7277	523.846645207	23.0
6.7379	523.941843558	13.0
6.7482	524.037527827	15.0
6.7584	524.131842126	17.0
6.7686	524.22571962	20.0
6.7789	524.32007629	19.0
6.7891	524.413081998	26.0
6.7994	524.506562433	13.0
6.8096	524.598704451	18.0
6.8198	524.690419724	10.0
6.8301	524.782603137	9.0
6.8403	524.873466704	21.0
6.8506	524.964794064	12.0
6.8608	525.054813834	10.0
6.871	525.144416688	12.0
6.8813	525.2344769	11.0
6.8915	525.323247664	13.0
6.9018	525.412471539	16.0
6.912	525.500417942	17.0
6.9222	525.58795703	11.0
6.9325	525.675942942	13.0
6.9427	525.762669107	11.0
6.953	525.849837945	14.0
6.9632	525.935758735	10.0
6.9734	526.021281591	9.0
6.9837	526.10724098	11.0
6.9939	526.191969636	3.0
7.0042	526.277130771	11.0
7.0144	526.361072601	9.0
7.0246	526.444625665	12.0
7.0349	526.528605206	7.0
7.0451	526.611382361	19.0
7.0554	526.694582033	10.0
7.0656	526.776590486	13.0
7.0758	526.858219125	11.0
7.0861	526.940264419	8.0
7.0963	527.021135021	8.0
7.1066	527.102418408	9.0
7.1168	527.182538012	11.0
7.127	527.262286551	8.0
7.1373	527.342442148	14.0
7.1475	527.421450109	5.0
7.1578	527.500861348	13.0
7.168	527.579135609	11.0
7.1782	527.657047351	15.0
7.1885	527.735356775	13.0
7.1987	527.812544996	16.0
7.209	527.890127207	8.0
7.2192	527.966598626	15.0
7.2294	528.042715877	5.0
7.2397	528.119221651	4.0
7.2499	528.194632045	9.0
7.2602	528.270427354	9.0
7.2704	528.345137456	8.0
7.2806	528.419501547	10.0
7.2909	528.494245212	7.0
7.3011	528.567918727	7.0
7.3114	528.641968291	8.0
7.3216	528.714957643	10.0
7.3318	528.787608953	12.0
7.3421	528.860631095	8.0
7.3523	528.932607735	9.0
7.3626	529.004951763	6.0
7.3728	529.076259998	9.0
7.383	529.147237977	7.0
7.3933	529.218578247	6.0
7.4035	529.288897094	9.0
7.4138	529.359574869	17.0
7.424	529.429240707	5.0
7.4342	529.498583895	10.0
7.4445	529.56828103	7.0
7.4547	529.636980269	10.0
7.465	529.706030167	7.0
7.4752	529.774091437	8.0
7.4854	529.841837488	8.0
7.4957	529.909929333	3.0
7.5059	529.977046266	6.0
7.5162	530.044505782	7.0
7.5264	530.11099944	10.0
7.5366	530.177185139	11.0
7.5469	530.243708669	3.0
7.5571	530.309279741	6.0
7.5674	530.375185505	5.0
7.5776	530.440147657	7.0
7.5878	530.504808943	7.0
7.5981	530.569800279	8.0
7.6083	530.633861094	6.0
7.6186	530.698248893	5.0
7.6288	530.761714813	8.0
7.639	530.824886797	3.0
7.6493	530.888381229	5.0
7.6595	530.950966572	9.0
7.6698	531.013871369	5.0
