TL-DOS Lehrstuhlversuch
detector=R1407601
job_number=2015-10-23-003
irradiation_dose [mSv]=4.0

[BEGIN DATA]
time [sec] 	 temperature [K] 	 photoncount 
0.0	208.525645364	0.0
0.0102	209.62134529	0.0
0.0205	210.724352547	1.0
0.0307	211.813260059	2.0
0.041	212.909429601	1.0
0.0512	213.991586806	1.0
0.0614	215.070400928	1.0
0.0717	216.156409767	1.0
0.0819	217.228536153	3.0
0.0922	218.307812654	2.0
0.1024	219.373292761	0.0
0.1126	220.435481305	0.0
0.1229	221.504753689	0.0
0.1331	222.560357561	3.0
0.1434	223.623001358	3.0
0.1536	224.672061377	0.0
0.1638	225.71788056	2.0
0.1741	226.770674414	4.0
0.1843	227.810010401	0.0
0.1946	228.856277821	0.0
0.2048	229.889170802	3.0
0.215	230.918872891	3.0
0.2253	231.955442165	1.0
0.2355	232.97876097	0.0
0.2458	234.008904389	2.0
0.256	235.025879482	0.0
0.2662	236.039712858	0.0
0.2765	237.060307588	0.0
0.2867	238.067856053	0.0
0.297	239.082123957	0.0
0.3072	240.083426472	0.0
0.3174	241.081635686	0.0
0.3277	242.086502056	0.0
0.3379	243.078523216	0.0
0.3482	244.077160263	0.0
0.3584	245.06303173	0.0
0.3686	246.045857567	0.0
0.3789	247.035237966	0.0
0.3891	248.011971112	0.0
0.3994	248.995218188	0.0
0.4096	249.965896414	0.0
0.4198	250.933575946	0.0
0.4301	251.907709028	0.0
0.4403	252.869389765	0.0
0.4506	253.837484044	0.0
0.4608	254.793203172	1.0
0.471	255.745969819	0.0
0.4813	256.70509056	0.0
0.4915	257.651950858	0.0
0.5018	258.60512586	0.0
0.512	259.546116424	0.0
0.5222	260.484200008	1.0
0.5325	261.428539763	0.0
0.5427	262.360808021	0.0
0.553	263.299293666	1.0
0.5632	264.225782648	0.0
0.5734	265.149409449	0.0
0.5837	266.079196007	1.0
0.5939	266.997097102	0.0
0.6042	267.921119768	0.0
0.6144	268.833330651	1.0
0.6246	269.742723462	0.0
0.6349	270.658181103	0.0
0.6451	271.561936447	0.0
0.6554	272.471719023	0.0
0.6656	273.369871846	1.0
0.6758	274.265250027	0.0
0.6861	275.166599573	0.0
0.6963	276.056427165	0.0
0.7066	276.952189104	0.0
0.7168	277.836500517	0.0
0.727	278.718080047	0.0
0.7373	279.605538917	0.0
0.7475	280.481653398	1.0
0.7578	281.363610772	0.0
0.768	282.234294083	1.0
0.7782	283.102287613	0.0
0.7885	283.976069876	0.0
0.7987	284.838682579	0.0
0.809	285.70704813	0.0
0.8192	286.564313362	0.0
0.8294	287.418930264	0.0
0.8397	288.279246691	0.0
0.8499	289.12856569	0.0
0.8602	289.983548881	0.0
0.8704	290.82760282	0.0
0.8806	291.669049243	0.0
0.8909	292.516107354	1.0
0.9011	293.352337519	0.0
0.9114	294.194144585	0.0
0.9216	295.02519083	1.0
0.9318	295.853669743	0.0
0.9421	296.687673862	0.0
0.9523	297.511016905	0.0
0.9626	298.339850903	0.0
0.9728	299.158089915	0.0
0.983	299.973801159	0.0
0.9933	300.794952462	0.0
1.0035	301.605606986	1.0
1.0138	302.421667844	1.0
1.024	303.227296994	0.0
1.0342	304.030437332	0.0
1.0445	304.838933893	1.0
1.0547	305.63709544	0.0
1.065	306.440580004	1.0
1.0752	307.233793623	1.0
1.0854	308.024556786	0.0
1.0957	308.820593626	0.0
1.1059	309.606454725	0.0
1.1162	310.397556808	1.0
1.1264	311.178546232	3.0
1.1366	311.957122963	0.0
1.1469	312.740892099	1.0
1.1571	313.514642312	1.0
1.1674	314.29355274	1.0
1.1776	315.062506355	0.0
1.1878	315.82908446	1.0
1.1981	316.600774949	0.0
1.2083	317.362600916	2.0
1.2186	318.129507576	2.0
1.2288	318.886610866	0.0
1.239	319.641375254	1.0
1.2493	320.40117324	1.0
1.2595	321.151258726	2.0
1.2698	321.906346606	2.0
1.28	322.651782196	1.0
1.2902	323.394914929	3.0
1.3005	324.143003687	1.0
1.3107	324.881529624	2.0
1.321	325.624980863	2.0
1.3312	326.358928563	0.0
1.3414	327.090608896	3.0
1.3517	327.827168877	0.0
1.3619	328.554313409	0.0
1.3722	329.28630734	5.0
1.3824	330.00894419	1.0
1.3926	330.729348615	4.0
1.4029	331.454557488	2.0
1.4131	332.170496014	3.0
1.4234	332.891209204	1.0
1.4336	333.602709516	5.0
1.4438	334.312011807	4.0
1.4541	335.026044503	3.0
1.4643	335.730949719	3.0
1.4746	336.440556015	1.0
1.4848	337.141091413	1.0
1.495	337.839462664	4.0
1.5053	338.54249142	2.0
1.5155	339.236533359	2.0
1.5258	339.935203931	5.0
1.536	340.624943395	7.0
1.5462	341.312552063	4.0
1.5565	342.004746461	4.0
1.5667	342.688092536	6.0
1.577	343.375995913	11.0
1.5872	344.055105819	10.0
1.5974	344.732117767	6.0
1.6077	345.413644774	5.0
1.6179	346.08645982	5.0
1.6282	346.763761935	11.0
1.6384	347.432406096	4.0
1.6486	348.098984629	9.0
1.6589	348.77000864	12.0
1.6691	349.43245495	14.0
1.6794	350.099319179	13.0
1.6896	350.757658881	12.0
1.6998	351.413964789	17.0
1.7101	352.074647666	14.0
1.7203	352.726885032	16.0
1.7306	353.383472232	19.0
1.7408	354.031666277	16.0
1.751	354.677857871	19.0
1.7613	355.328358981	18.0
1.7715	355.970544733	22.0
1.7818	356.617013284	26.0
1.792	357.255218027	15.0
1.8022	357.891451178	25.0
1.8125	358.531927431	27.0
1.8227	359.164216474	29.0
1.833	359.800722315	22.0
1.8432	360.4290917	41.0
1.8534	361.055519878	30.0
1.8637	361.686125767	31.0
1.8739	362.308670619	39.0
1.8842	362.935367284	33.0
1.8944	363.554052884	39.0
1.9046	364.170827193	26.0
1.9149	364.79171483	44.0
1.9251	365.404665659	51.0
1.9354	366.021704317	51.0
1.9456	366.630855369	59.0
1.9558	367.238124584	54.0
1.9661	367.849443737	56.0
1.9763	368.452948396	58.0
1.9866	369.060477887	65.0
1.9968	369.660241326	74.0
2.007	370.258151931	86.0
2.0173	370.86005006	85.0
2.0275	371.454254123	90.0
2.0378	372.052420992	92.0
2.048	372.642941492	93.0
2.0582	373.231637711	91.0
2.0685	373.824260002	94.0
2.0787	374.409306802	107.0
2.089	374.998255335	99.0
2.0992	375.579675339	112.0
2.1094	376.159299175	133.0
2.1197	376.742788579	134.0
2.1299	377.318819237	143.0
2.1402	377.898691499	140.0
2.1504	378.471151253	153.0
2.1606	379.04184252	134.0
2.1709	379.616339784	176.0
2.1811	380.183493247	170.0
2.1914	380.754429112	177.0
2.2016	381.318066703	176.0
2.2118	381.879963062	191.0
2.2221	382.445606762	201.0
2.2323	383.004019837	204.0
2.2426	383.566157024	215.0
2.2528	384.12110841	223.0
2.263	384.674345397	265.0
2.2733	385.231271976	261.0
2.2835	385.781079362	243.0
2.2938	386.334553466	274.0
2.304	386.88095251	261.0
2.3142	387.425663576	306.0
2.3245	387.974007373	292.0
2.3347	388.51534169	308.0
2.345	389.060286219	303.0
2.3552	389.598264721	350.0
2.3654	390.134581258	364.0
2.3757	390.674474543	349.0
2.3859	391.20746637	404.0
2.3962	391.744012772	344.0
2.4064	392.2737005	413.0
2.4166	392.801751877	399.0
2.4269	393.333324879	420.0
2.4371	393.858102783	457.0
2.4474	394.386380482	448.0
2.4576	394.907905205	478.0
2.4678	395.427818795	487.0
2.4781	395.951199739	444.0
2.4883	396.467890303	427.0
2.4986	396.988026727	479.0
2.5088	397.501514246	478.0
2.519	398.01341546	553.0
2.5293	398.528730594	546.0
2.5395	399.037458453	526.0
2.5498	399.549579067	555.0
2.56	400.055153243	595.0
2.5702	400.55916556	594.0
2.5805	401.066539184	560.0
2.5907	401.567427051	566.0
2.601	402.071655387	628.0
2.6112	402.569438172	615.0
2.6214	403.065683167	575.0
2.6317	403.56523767	582.0
2.6419	404.058406365	580.0
2.6522	404.554864051	611.0
2.6624	405.044975518	631.0
2.6726	405.533572894	581.0
2.6829	406.025428774	580.0
2.6931	406.510997259	565.0
2.7034	406.999804048	545.0
2.7136	407.482362419	547.0
2.7238	407.963430033	599.0
2.7341	408.447705934	510.0
2.7443	408.925791336	552.0
2.7546	409.407065135	507.0
2.7648	409.88218681	465.0
2.775	410.355840704	515.0
2.7853	410.832653441	527.0
2.7955	411.30337108	487.0
2.8058	411.777227981	515.0
2.816	412.245027568	485.0
2.8262	412.711381993	456.0
2.8365	413.180846581	471.0
2.8467	413.644310002	472.0
2.857	414.110864305	435.0
2.8672	414.571454645	445.0
2.8774	415.030622093	391.0
2.8877	415.492851774	377.0
2.8979	415.949172771	358.0
2.9082	416.408537018	370.0
2.9184	416.862029211	352.0
2.9286	417.314120441	343.0
2.9389	417.769226712	335.0
2.9491	418.218515358	324.0
2.9594	418.670800354	317.0
2.9696	419.11730379	342.0
2.9798	419.562427853	315.0
2.9901	420.010520492	317.0
3.0003	420.452885162	304.0
3.0106	420.898200005	302.0
3.0208	421.337822388	331.0
3.031	421.776086655	275.0
3.0413	422.217273749	286.0
3.0515	422.652821148	302.0
3.0618	423.091273255	296.0
3.072	423.524120628	315.0
3.0822	423.955630816	314.0
3.0925	424.390018787	308.0
3.1027	424.818853975	298.0
3.113	425.250549108	318.0
3.1232	425.67672588	300.0
3.1334	426.101586075	313.0
3.1437	426.529279704	336.0
3.1539	426.951506124	347.0
3.1642	427.376548414	348.0
3.1744	427.796157386	315.0
3.1846	428.214470071	364.0
3.1949	428.635572524	348.0
3.2051	429.051292023	390.0
3.2154	429.469783996	380.0
3.2256	429.882926386	421.0
3.2358	430.294792464	372.0
3.2461	430.709405317	384.0
3.2563	431.118718174	401.0
3.2666	431.530760778	369.0
3.2768	431.93753624	440.0
3.287	432.34305506	494.0
3.2973	432.751278325	442.0
3.3075	433.154283271	414.0
3.3178	433.559975896	472.0
3.328	433.960482552	467.0
3.3382	434.359751932	455.0
3.3485	434.761684078	516.0
3.3587	435.158478325	515.0
3.369	435.557918831	495.0
3.3792	435.952253288	494.0
3.3894	436.345369538	486.0
3.3997	436.741107518	554.0
3.4099	437.131786778	503.0
3.4202	437.525071517	537.0
3.4304	437.913328895	528.0
3.4406	438.30038684	568.0
3.4509	438.690026112	525.0
3.4611	439.074684624	572.0
3.4714	439.461908461	572.0
3.4816	439.844182415	552.0
3.4918	440.225275419	566.0
3.5021	440.608909969	585.0
3.5123	440.987640518	564.0
3.5226	441.368896859	549.0
3.5328	441.745279598	619.0
3.543	442.120499587	578.0
3.5533	442.498221955	583.0
3.5635	442.871115897	570.0
3.5738	443.246496705	610.0
3.584	443.61707902	572.0
3.5942	443.986516503	641.0
3.6045	444.358417801	593.0
3.6147	444.725565083	618.0
3.625	445.095160907	581.0
3.6352	445.460032187	585.0
3.6454	445.823776278	597.0
3.6557	446.189946214	580.0
3.6659	446.551435399	586.0
3.6762	446.915335391	599.0
3.6864	447.274583648	595.0
3.6966	447.632722088	572.0
3.7069	447.993248988	571.0
3.7171	448.349167272	577.0
3.7274	448.70745921	554.0
3.7376	449.061171101	597.0
3.7478	449.413790279	562.0
3.7581	449.768761108	543.0
3.7683	450.119194344	557.0
3.7786	450.471964654	551.0
3.7888	450.8202255	535.0
3.799	451.167410472	557.0
3.8093	451.516910854	561.0
3.8195	451.861943572	529.0
3.8298	452.209277348	527.0
3.84	452.552171154	541.0
3.8502	452.894005667	546.0
3.8605	453.238119908	514.0
3.8707	453.577835336	529.0
3.881	453.919816359	533.0
3.8912	454.257425837	539.0
3.9014	454.593992347	504.0
3.9117	454.932803452	551.0
3.9219	455.267283533	452.0
3.9322	455.603994295	473.0
3.9424	455.936400882	479.0
3.9526	456.267780574	499.0
3.9629	456.601370269	505.0
3.9731	456.930695686	496.0
3.9834	457.262217407	513.0
3.9936	457.589501284	472.0
4.0038	457.915774092	473.0
4.0141	458.244222844	481.0
4.0243	458.568473036	513.0
4.0346	458.894885683	479.0
4.0448	459.217125797	457.0
4.055	459.538370422	535.0
4.0653	459.861757459	486.0
4.0755	460.181010639	499.0
4.0858	460.502392949	452.0
4.096	460.819667029	470.0
4.1062	461.135960961	432.0
4.1165	461.454364288	479.0
4.1267	461.768697465	471.0
4.137	462.08512696	488.0
4.1472	462.397511537	473.0
4.1574	462.708931071	453.0
4.1677	463.022427492	511.0
4.1779	463.331916488	521.0
4.1882	463.643469497	480.0
4.1984	463.951039922	480.0
4.2086	464.257660178	475.0
4.2189	464.566325314	458.0
4.2291	464.871044782	488.0
4.2394	465.177796455	444.0
4.2496	465.48062692	459.0
4.2598	465.782521858	475.0
4.2701	466.086430163	520.0
4.2803	466.386453608	484.0
4.2906	466.688477938	461.0
4.3008	466.986641491	475.0
4.311	467.283883933	452.0
4.3213	467.583108715	511.0
4.3315	467.878508506	475.0
4.3418	468.175878346	462.0
4.352	468.469446908	464.0
4.3622	468.762108555	469.0
4.3725	469.056721991	489.0
4.3827	469.347569382	477.0
4.393	469.640356464	473.0
4.4032	469.929400847	438.0
4.4134	470.217552293	491.0
4.4237	470.507625448	474.0
4.4339	470.793990598	450.0
4.4442	471.082265545	508.0
4.4544	471.366855473	468.0
4.4646	471.650566223	490.0
4.4749	471.936169069	436.0
4.4851	472.218121052	465.0
4.4954	472.501953401	477.0
4.5056	472.78215752	476.0
4.5158	473.061496012	496.0
4.5261	473.342697438	458.0
4.5363	473.620304267	461.0
4.5466	473.899762482	445.0
4.5568	474.175648383	451.0
4.567	474.450681996	467.0
4.5773	474.727549834	433.0
4.5875	475.000878471	464.0
4.5978	475.276029963	489.0
4.608	475.547664193	466.0
4.6182	475.818459269	466.0
4.6285	476.091060304	470.0
4.6387	476.36017668	478.0
4.649	476.631087819	428.0
4.6592	476.8985359	433.0
4.6694	477.165157761	461.0
4.6797	477.433557748	467.0
4.6899	477.698526778	465.0
4.7002	477.965262912	466.0
4.7104	478.228589358	451.0
4.7206	478.491102315	461.0
4.7309	478.755365997	462.0
4.7411	479.016251595	459.0
4.7514	479.278877066	480.0
4.7616	479.538145394	455.0
4.7718	479.79661277	446.0
4.7821	480.056803891	429.0
4.7923	480.313668988	444.0
4.8026	480.572247144	465.0
4.8128	480.827519894	450.0
4.823	481.082004037	459.0
4.8333	481.338185359	399.0
4.8435	481.591091914	424.0
4.8538	481.845685128	469.0
4.864	482.097023876	402.0
4.8742	482.34758617	416.0
4.8845	482.599819488	462.0
4.8947	482.848828507	454.0
4.905	483.099498191	426.0
4.9152	483.346963564	438.0
4.9254	483.593664448	404.0
4.9357	483.842010604	440.0
4.9459	484.087182151	432.0
4.9562	484.333988771	431.0
4.9664	484.577640462	396.0
4.9766	484.820539445	409.0
4.9869	485.065058345	415.0
4.9971	485.306451559	461.0
5.0074	485.549454648	405.0
5.0176	485.789351428	431.0
5.0278	486.028507101	395.0
5.0381	486.269257726	422.0
5.0483	486.506930836	444.0
5.0586	486.74618901	418.0
5.0688	486.982388747	380.0
5.079	487.217858798	401.0
5.0893	487.454899221	377.0
5.0995	487.688909556	400.0
5.1098	487.924480529	433.0
5.12	488.157040197	413.0
5.1302	488.388881425	418.0
5.1405	488.622268824	390.0
5.1507	488.852672831	406.0
5.161	489.084613426	409.0
5.1712	489.313589123	415.0
5.1814	489.541857451	391.0
5.1917	489.771648123	371.0
5.2019	489.99850138	410.0
5.2122	490.226867543	381.0
5.2224	490.452314502	383.0
5.2326	490.677064992	420.0
5.2429	490.903314366	390.0
5.2531	491.126671593	419.0
5.2634	491.351518411	396.0
5.2736	491.573491012	387.0
5.2838	491.794777878	383.0
5.2941	492.017540528	393.0
5.3043	492.237455602	426.0
5.3146	492.458837312	380.0
5.3248	492.677389098	391.0
5.335	492.895265718	401.0
5.3453	493.114595378	425.0
5.3555	493.331121347	380.0
5.3658	493.549091348	423.0
5.376	493.764275039	407.0
5.3862	493.978793967	386.0
5.3965	494.194743544	384.0
5.4067	494.407932636	395.0
5.417	494.622543507	410.0
5.4272	494.834411007	381.0
5.4374	495.04562399	413.0
5.4477	495.258245572	419.0
5.4579	495.468149213	416.0
5.4682	495.679452721	406.0
5.4784	495.888055136	406.0
5.4886	496.096013121	413.0
5.4989	496.305357997	431.0
5.5091	496.512026818	404.0
5.5194	496.720073933	393.0
5.5296	496.925461582	411.0
5.5398	497.130214731	424.0
5.5501	497.336333399	415.0
5.5603	497.539817251	389.0
5.5706	497.744658157	406.0
5.5808	497.946880582	420.0
5.591	498.148478285	406.0
5.6013	498.351420464	412.0
5.6115	498.551768432	365.0
5.6218	498.75345254	414.0
5.632	498.952558519	402.0
5.6422	499.151049406	413.0
5.6525	499.350864047	396.0
5.6627	499.548124457	374.0
5.673	499.746700417	381.0
5.6832	499.942737979	380.0
5.6934	500.138169927	356.0
5.7037	500.33490523	449.0
5.7139	500.529125665	391.0
5.7242	500.724641375	365.0
5.7344	500.917657807	425.0
5.7446	501.110077958	401.0
5.7549	501.303781378	402.0
5.7651	501.495008687	376.0
5.7754	501.687511309	392.0
5.7856	501.87755317	392.0
5.7958	502.067007939	384.0
5.8061	502.257726201	397.0
5.8163	502.44600651	411.0
5.8266	502.635542479	346.0
5.8368	502.822655609	373.0
5.847	503.009190696	372.0
5.8573	503.196969803	388.0
5.8675	503.382348529	353.0
5.8778	503.568963564	399.0
5.888	503.753193098	372.0
5.8982	503.936853497	357.0
5.9085	504.121738745	366.0
5.9187	504.304260604	362.0
5.929	504.487999719	324.0
5.9392	504.669390097	375.0
5.9494	504.85022011	346.0
5.9597	505.032256096	321.0
5.9699	505.211965115	333.0
5.9802	505.392872631	334.0
5.9904	505.571467606	346.0
6.0006	505.749510852	323.0
6.0109	505.928741486	323.0
6.0211	506.105681014	331.0
6.0314	506.283800569	305.0
6.0416	506.459643222	320.0
6.0518	506.634942647	317.0
6.0621	506.811411162	302.0
6.0723	506.98562388	302.0
6.0826	507.160998439	298.0
6.0928	507.334131184	292.0
6.103	507.506729075	293.0
6.1133	507.680478038	257.0
6.1235	507.852005967	279.0
6.1338	508.024677833	271.0
6.144	508.195142434	273.0
6.1542	508.365080423	276.0
6.1645	508.536151745	292.0
6.1747	508.705036262	272.0
6.185	508.875047086	251.0
6.1952	509.042884662	229.0
6.2054	509.21020374	223.0
6.2157	509.378638686	236.0
6.2259	509.544920528	230.0
6.2362	509.71231132	225.0
6.2464	509.877562354	251.0
6.2566	510.042302883	215.0
6.2669	510.208142082	240.0
6.2771	510.371861358	214.0
6.2874	510.536672495	221.0
6.2976	510.69937685	190.0
6.3078	510.861578566	188.0
6.3181	511.024862021	191.0
6.3283	511.186058224	186.0
6.3386	511.34832946	153.0
6.3488	511.508526382	185.0
6.359	511.668228412	198.0
6.3693	511.82899551	182.0
6.3795	511.987707522	171.0
6.3898	512.147478	172.0
6.4	512.305206131	164.0
6.4102	512.462446997	142.0
6.4205	512.620736517	169.0
6.4307	512.777002622	162.0
6.441	512.934310881	154.0
6.4512	513.089608268	149.0
6.4614	513.244425899	132.0
6.4717	513.400276023	150.0
6.4819	513.554133915	145.0
6.4922	513.7090179	126.0
6.5024	513.861922003	135.0
6.5126	514.014353743	103.0
6.5229	514.167802065	121.0
6.5331	514.319288857	112.0
6.5434	514.471785929	113.0
6.5536	514.622333631	123.0
6.5638	514.772416249	110.0
6.5741	514.923499782	104.0
6.5843	515.072652015	116.0
6.5946	515.222798958	104.0
6.6048	515.371026573	85.0
6.615	515.518796272	82.0
6.6253	515.667551461	97.0
6.6355	515.814405112	81.0
6.6458	515.962238145	81.0
6.656	516.108181427	57.0
6.6662	516.253673851	76.0
6.6765	516.400136577	71.0
6.6867	516.54472707	84.0
6.697	516.690281852	93.0
6.7072	516.833976006	63.0
6.7174	516.977226249	64.0
6.7277	517.121431842	75.0
6.7379	517.263794055	52.0
6.7482	517.407105695	64.0
6.7584	517.548585382	63.0
6.7686	517.689628	60.0
6.7789	517.831611244	62.0
6.7891	517.971779516	39.0
6.7994	518.112882584	58.0
6.8096	518.252181931	49.0
6.8198	518.391050944	55.0
6.8301	518.530846088	50.0
6.8403	518.668854231	31.0
6.8506	518.807782763	47.0
6.8608	518.944935371	50.0
6.871	519.081664277	30.0
6.8813	519.219305042	48.0
6.8915	519.355186344	33.0
6.9018	519.491973852	32.0
6.912	519.627012805	18.0
6.9222	519.761634585	36.0
6.9325	519.897154171	24.0
6.9427	520.03094141	32.0
6.953	520.165620889	29.0
6.9632	520.29857876	28.0
6.9734	520.431125888	24.0
6.9837	520.564556985	25.0
6.9939	520.696282432	21.0
7.0042	520.828886369	26.0
7.0144	520.959795229	27.0
7.0246	521.090299676	33.0
7.0349	521.22167447	27.0
7.0451	521.3513699	16.0
7.0554	521.48193028	26.0
7.0656	521.610821708	21.0
7.0758	521.739314954	14.0
7.0861	521.868665134	20.0
7.0963	521.99636183	16.0
7.1066	522.124910148	18.0
7.1168	522.251815233	18.0
7.127	522.378328273	21.0
7.1373	522.505685041	13.0
7.1475	522.631413806	18.0
7.1578	522.75798107	13.0
7.168	522.882930423	19.0
7.1782	523.007493774	14.0
7.1885	523.132887849	13.0
7.1987	523.256679012	7.0
7.209	523.38129575	12.0
7.2192	523.504319512	19.0
7.2294	523.62696322	19.0
7.2397	523.750424851	16.0
7.2499	523.872308271	14.0
7.2602	523.995004544	12.0
7.2704	524.11613239	16.0
7.2806	524.236886039	10.0
7.2909	524.358445005	12.0
7.3011	524.478450083	9.0
7.3114	524.599255486	16.0
7.3216	524.718516634	12.0
7.3318	524.837409351	10.0
7.3421	524.957094976	9.0
7.3523	525.075250658	6.0
7.3626	525.194194333	5.0
7.3728	525.31161755	6.0
7.383	525.428678014	12.0
7.3933	525.546519166	10.0
7.4035	525.662853955	7.0
7.4138	525.779964591	6.0
7.424	525.895578202	7.0
7.4342	526.01083465	2.0
7.4445	526.126859755	10.0
7.4547	526.241401711	9.0
7.465	526.356707558	13.0
7.4752	526.470539451	5.0
7.4854	526.584019685	8.0
7.4957	526.69825673	13.0
7.5059	526.811033482	7.0
7.5162	526.924562354	6.0
7.5264	527.036639986	8.0
7.5366	527.148371379	5.0
7.5469	527.26084792	5.0
7.5571	527.371886673	4.0
7.5674	527.483665954	6.0
7.5776	527.59401636	3.0
7.5878	527.704025863	7.0
7.5981	527.814769031	11.0
7.6083	527.924096568	5.0
7.6186	528.034153221	4.0
7.6288	528.14280302	3.0
7.639	528.25111717	3.0
7.6493	528.360153677	7.0
7.6595	528.467796371	6.0
7.6698	528.576156944	4.0
7.68	528.683132343	7.0
7.6902	528.789777266	8.0
7.7005	528.897133414	3.0
7.7107	529.003117229	4.0
7.721	529.10980786	6.0
7.7312	529.215134664	4.0
7.7414	529.320136085	2.0
7.7517	529.42583777	4.0
7.7619	529.530188271	3.0
7.7722	529.635234695	4.0
7.7824	529.73893831	4.0
