TL-DOS Lehrstuhlversuch
detector=R1407603
job_number=2015-10-21-014
irradiation_dose [mSv]=5.0

[BEGIN DATA]
time [sec] 	 temperature [K] 	 photoncount 
0.0	257.018190491	0.0
0.0102	257.68207025	0.0
0.0205	258.351219534	0.0
0.0307	259.012647418	2.0
0.041	259.679325365	0.0
0.0512	260.338310429	0.0
0.0614	260.996083404	1.0
0.0717	261.659077432	2.0
0.0819	262.314421086	3.0
0.0922	262.974966509	0.0
0.1024	263.627889814	1.0
0.1126	264.279612179	2.0
0.1229	264.93650757	3.0
0.1331	265.58582296	2.0
0.1434	266.240292271	1.0
0.1536	266.887209576	2.0
0.1638	267.532936988	1.0
0.1741	268.183789842	3.0
0.1843	268.82713242	1.0
0.1946	269.475581511	0.0
0.2048	270.116548063	2.0
0.215	270.756335668	2.0
0.2253	271.401201567	0.0
0.2355	272.038626276	0.0
0.2458	272.681110523	1.0
0.256	273.316181061	0.0
0.2662	273.950083497	0.0
0.2765	274.589017514	0.0
0.2867	275.220578788	0.0
0.297	275.857153061	0.0
0.3072	276.48638182	0.0
0.3174	277.114453222	0.0
0.3277	277.747509922	1.0
0.3379	278.373261698	0.0
0.3482	279.003980359	0.0
0.3584	279.627421076	0.0
0.3686	280.249715082	0.0
0.3789	280.876948528	1.0
0.3891	281.496944245	1.0
0.3994	282.121861159	0.0
0.4096	282.739567076	0.0
0.4198	283.35613683	0.0
0.4301	283.977600587	0.0
0.4403	284.591893194	1.0
0.4506	285.211061729	0.0
0.4608	285.823085597	1.0
0.471	286.433983755	0.0
0.4813	287.049730897	0.0
0.4915	287.658372853	1.0
0.5018	288.271845886	0.0
0.512	288.878239974	0.0
0.5222	289.483518705	0.0
0.5325	290.093601818	0.0
0.5427	290.696645102	0.0
0.553	291.304475024	1.0
0.5632	291.905291117	0.0
0.5734	292.505002113	1.0
0.5837	293.109473297	0.0
0.5939	293.706969409	1.0
0.6042	294.309208129	0.0
0.6144	294.904497537	0.0
0.6246	295.498692014	0.0
0.6349	296.097602892	1.0
0.6451	296.689602859	0.0
0.6554	297.286301807	0.0
0.6656	297.876115369	0.0
0.6758	298.464844071	0.0
0.6861	299.058245789	0.0
0.6963	299.644800167	0.0
0.7066	300.236010303	0.0
0.7168	300.820398388	0.0
0.727	301.403711593	1.0
0.7373	301.991654829	0.0
0.7475	302.572813711	0.0
0.7578	303.158585523	0.0
0.768	303.737598039	0.0
0.7782	304.315545562	0.0
0.7885	304.898080525	0.0
0.7987	305.473893542	0.0
0.809	306.054277057	0.0
0.8192	306.627963451	0.0
0.8294	307.200594648	0.0
0.8397	307.777771088	0.0
0.8499	308.348287414	1.0
0.8602	308.923332196	1.0
0.8704	309.491741461	2.0
0.8806	310.059105236	1.0
0.8909	310.630972444	0.0
0.9011	311.196240802	0.0
0.9114	311.765995959	0.0
0.9216	312.329176638	0.0
0.9318	312.891321444	0.0
0.9421	313.457928257	0.0
0.9523	314.017996921	1.0
0.9626	314.582511112	1.0
0.9728	315.1405113	2.0
0.983	315.697485144	0.0
0.9933	316.258879951	0.0
1.0035	316.81379675	0.0
1.0138	317.373118184	1.0
1.024	317.925985536	0.0
1.0342	318.477835984	1.0
1.0445	319.034066728	1.0
1.0547	319.583879053	0.0
1.065	320.138055496	0.0
1.0752	320.685837226	0.0
1.0854	321.232611406	1.0
1.0957	321.783725589	0.0
1.1059	322.328480394	1.0
1.1162	322.877559174	0.0
1.1264	323.420302062	1.0
1.1366	323.962046669	0.0
1.1469	324.508091357	1.0
1.1571	325.047835164	1.0
1.1674	325.591863171	1.0
1.1776	326.129613569	1.0
1.1878	326.666374868	1.0
1.1981	327.207396693	0.0
1.2083	327.742175597	2.0
1.2186	328.281199292	1.0
1.2288	328.814003123	1.0
1.239	329.345826953	0.0
1.2493	329.881872119	2.0
1.2595	330.41173179	2.0
1.2698	330.945797206	5.0
1.28	331.473699971	3.0
1.2902	332.000631751	2.0
1.3005	332.531746036	0.0
1.3107	333.056731724	1.0
1.321	333.58588447	1.0
1.3312	334.108931254	0.0
1.3414	334.631015983	2.0
1.3517	335.157244745	0.0
1.3619	335.677401284	2.0
1.3722	336.201686549	2.0
1.3824	336.719922019	0.0
1.3926	337.237204285	3.0
1.4029	337.758592463	3.0
1.4131	338.273964275	2.0
1.4234	338.793426834	2.0
1.4336	339.306895248	1.0
1.4438	339.819419226	3.0
1.4541	340.336011347	2.0
1.4643	340.846642444	1.0
1.4746	341.36132666	2.0
1.4848	341.870071868	2.0
1.495	342.377881327	5.0
1.5053	342.889721509	4.0
1.5155	343.3956555	1.0
1.5258	343.905605326	7.0
1.536	344.409670776	4.0
1.5462	344.912809084	4.0
1.5565	345.419941037	6.0
1.5667	345.921221129	8.0
1.577	346.426480116	4.0
1.5872	346.925908854	3.0
1.5974	347.424418979	4.0
1.6077	347.926886013	3.0
1.6179	348.423555015	10.0
1.6282	348.924166311	7.0
1.6384	349.419000989	10.0
1.6486	349.912925505	1.0
1.6589	350.410770531	6.0
1.6691	350.902870858	5.0
1.6794	351.398877217	8.0
1.6896	351.889160094	7.0
1.6998	352.378541181	11.0
1.7101	352.871806715	9.0
1.7203	353.359380393	9.0
1.7306	353.850824173	8.0
1.7408	354.33659712	15.0
1.751	354.821476571	10.0
1.7613	355.310204738	14.0
1.7715	355.793293407	17.0
1.7818	356.280216578	13.0
1.792	356.761521079	11.0
1.8022	357.241940304	15.0
1.8125	357.726172841	15.0
1.8227	358.204817757	12.0
1.833	358.687261901	18.0
1.8432	359.16413906	11.0
1.8534	359.640139087	27.0
1.8637	360.119917349	10.0
1.8739	360.594159387	22.0
1.8842	361.072165706	16.0
1.8944	361.544656249	24.0
1.9046	362.016277727	33.0
1.9149	362.491642687	23.0
1.9251	362.961522348	16.0
1.9354	363.435131665	23.0
1.9456	363.903275942	34.0
1.9558	364.370559149	26.0
1.9661	364.841551402	32.0
1.9763	365.307108814	28.0
1.9866	365.776361574	26.0
1.9968	366.240199566	23.0
2.007	366.703184407	31.0
2.0173	367.169844177	28.0
2.0275	367.631119099	45.0
2.0378	368.096055377	34.0
2.048	368.555626694	47.0
2.0582	369.01435271	35.0
2.0685	369.47671985	44.0
2.0787	369.933751675	51.0
2.089	370.394411176	51.0
2.0992	370.849755067	52.0
2.1094	371.304261432	51.0
2.1197	371.762375427	54.0
2.1299	372.215203186	68.0
2.1402	372.67162525	64.0
2.1504	373.122780602	68.0
2.1606	373.573106131	77.0
2.1709	374.027006105	58.0
2.1811	374.475668469	74.0
2.1914	374.927892076	82.0
2.2016	375.374897417	89.0
2.2118	375.821080568	107.0
2.2221	376.270805285	90.0
2.2323	376.71534057	101.0
2.2426	377.163404339	118.0
2.2528	377.606297843	95.0
2.263	378.048376721	115.0
2.2733	378.493964587	103.0
2.2835	378.934410756	133.0
2.2938	379.378352953	146.0
2.304	379.817172444	144.0
2.3142	380.255184802	135.0
2.3245	380.696673869	122.0
2.3347	381.133068538	147.0
2.345	381.572927075	170.0
2.3552	382.007710027	157.0
2.3654	382.441693272	174.0
2.3757	382.879121245	183.0
2.3859	383.311501681	190.0
2.3962	383.747314122	205.0
2.4064	384.178097667	224.0
2.4166	384.608088861	194.0
2.4269	385.041493096	223.0
2.4371	385.469896224	236.0
2.4474	385.901699788	239.0
2.4576	386.328520715	268.0
2.4678	386.754556579	265.0
2.4781	387.183974089	277.0
2.4883	387.608436495	291.0
2.4986	388.036268058	293.0
2.5088	388.459162818	301.0
2.519	388.881279735	273.0
2.5293	389.306747193	347.0
2.5395	389.727305127	340.0
2.5498	390.151201226	354.0
2.56	390.570205933	402.0
2.5702	390.988439953	369.0
2.5805	391.409993693	411.0
2.5907	391.82668307	403.0
2.601	392.246679906	438.0
2.6112	392.661830344	439.0
2.6214	393.076217185	442.0
2.6317	393.493893208	445.0
2.6419	393.906749614	505.0
2.6522	394.322883054	503.0
2.6624	394.734214677	508.0
2.6726	395.144789726	558.0
2.6829	395.558623703	547.0
2.6931	395.967682395	564.0
2.7034	396.379987978	548.0
2.7136	396.787535914	596.0
2.7238	397.194334236	583.0
2.7341	397.604361507	602.0
2.7443	398.00965742	608.0
2.7546	398.418170356	626.0
2.7648	398.821969409	605.0
2.775	399.225025744	644.0
2.7853	399.631281326	676.0
2.7955	400.032849072	663.0
2.8058	400.43760425	713.0
2.816	400.837688905	712.0
2.8262	401.237037673	720.0
2.8365	401.639556261	681.0
2.8467	402.037430134	784.0
2.857	402.438462118	733.0
2.8672	402.834866543	721.0
2.8774	403.23054185	804.0
2.8877	403.629357818	693.0
2.8979	404.023571797	781.0
2.9082	404.420914836	765.0
2.9184	404.813672883	763.0
2.9286	405.20570852	752.0
2.9389	405.600855928	793.0
2.9491	405.991443678	774.0
2.9594	406.385131706	794.0
2.9696	406.774276918	748.0
2.9798	407.162706364	777.0
2.9901	407.554218956	701.0
3.0003	407.941213835	785.0
3.0106	408.331280473	721.0
3.0208	408.716846081	726.0
3.031	409.101702509	755.0
3.0413	409.489613722	716.0
3.0515	409.873048778	742.0
3.0618	410.259527337	700.0
3.072	410.641546271	723.0
3.0822	411.022862546	690.0
3.0925	411.407205508	669.0
3.1027	411.787113487	652.0
3.113	412.170036973	663.0
3.1232	412.548541856	596.0
3.1334	412.926350544	641.0
3.1437	413.307158078	650.0
3.1539	413.683571424	551.0
3.1642	414.062972539	587.0
3.1744	414.437995695	543.0
3.1846	414.812329061	565.0
3.1949	415.189633687	531.0
3.2051	415.562584546	523.0
3.2154	415.938495691	517.0
3.2256	416.310069148	461.0
3.2358	416.68095916	482.0
3.2461	417.054793101	478.0
3.2563	417.424313323	471.0
3.2666	417.7967666	471.0
3.2768	418.164922091	422.0
3.287	418.532400423	389.0
3.2973	418.902795604	420.0
3.3075	419.268916746	432.0
3.3178	419.637943964	388.0
3.328	420.002712928	427.0
3.3382	420.366810964	425.0
3.3485	420.733799016	398.0
3.3587	421.096552346	395.0
3.369	421.462185019	405.0
3.3792	421.823598609	366.0
3.3894	422.184347441	402.0
3.3997	422.547959706	391.0
3.4099	422.907376202	403.0
3.4202	423.269645556	391.0
3.4304	423.627734636	392.0
3.4406	423.985165073	407.0
3.4509	424.345432604	425.0
3.4611	424.701542961	427.0
3.4714	425.060479932	445.0
3.4816	425.415275084	429.0
3.4918	425.769417651	437.0
3.5021	426.126371214	431.0
3.5123	426.479205844	456.0
3.5226	426.834841087	458.0
3.5328	427.186372609	449.0
3.543	427.53725755	486.0
3.5533	427.89092763	506.0
3.5635	428.240516664	500.0
3.5738	428.592880551	488.0
3.584	428.941178465	555.0
3.5942	429.288835745	576.0
3.6045	429.639252545	508.0
3.6147	429.985625839	578.0
3.625	430.334748461	562.0
3.6352	430.679842511	554.0
3.6454	431.024301821	584.0
3.6557	431.371495266	612.0
3.6659	431.714682401	565.0
3.6762	432.060593573	606.0
3.6864	432.402513231	608.0
3.6966	432.743803987	610.0
3.7069	433.087803728	630.0
3.7171	433.427834011	645.0
3.7274	433.770563275	682.0
3.7376	434.10933774	624.0
3.7478	434.447489089	632.0
3.7581	434.788324504	615.0
3.7683	435.125226975	659.0
3.7786	435.464803599	706.0
3.7888	435.800461804	677.0
3.799	436.135502624	651.0
3.8093	436.47320282	697.0
3.8195	436.807006249	698.0
3.8298	437.143459233	702.0
3.84	437.476029843	737.0
3.8502	437.807988746	738.0
3.8605	438.142582563	778.0
3.8707	438.473315459	713.0
3.881	438.806673537	736.0
3.8912	439.136184952	733.0
3.9014	439.465090289	720.0
3.9117	439.796606301	737.0
3.9219	440.124296907	803.0
3.9322	440.454588548	746.0
3.9424	440.78106891	739.0
3.9526	441.106948768	766.0
3.9629	441.435415287	782.0
3.9731	441.760091589	746.0
3.9834	442.087344999	745.0
3.9936	442.410822189	771.0
4.0038	442.733704399	780.0
4.0141	443.059149477	758.0
4.0243	443.380839201	756.0
4.0346	443.705082328	744.0
4.0448	444.025583971	787.0
4.055	444.345496107	819.0
4.0653	444.667947536	790.0
4.0755	444.986678156	733.0
4.0858	445.307938691	769.0
4.096	445.625492158	733.0
4.1062	445.942461541	761.0
4.1165	446.261946858	729.0
4.1267	446.577745593	705.0
4.137	446.896050971	751.0
4.1472	447.210683382	752.0
4.1574	447.524737081	774.0
4.1677	447.841283571	776.0
4.1779	448.154177391	692.0
4.1882	448.469554795	700.0
4.1984	448.781293019	700.0
4.2086	449.092457854	751.0
4.2189	449.406092551	684.0
4.2291	449.716108176	665.0
4.2394	450.02858454	702.0
4.2496	450.337455199	692.0
4.2598	450.645757745	641.0
4.2701	450.956507432	749.0
4.2803	451.263671338	683.0
4.2906	451.573273348	641.0
4.3008	451.87930282	608.0
4.311	452.184769405	606.0
4.3213	452.49266062	640.0
4.3315	452.79699904	649.0
4.3418	453.103753136	661.0
4.352	453.406967556	601.0
4.3622	453.709624266	647.0
4.3725	454.014683305	593.0
4.3827	454.316222228	592.0
4.393	454.620154606	618.0
4.4032	454.92057987	658.0
4.4134	455.220452553	607.0
4.4237	455.522705467	615.0
4.4339	455.821470644	619.0
4.4442	456.122607262	600.0
4.4544	456.420269024	608.0
4.4646	456.71738329	615.0
4.4749	457.016855891	609.0
4.4851	457.312872839	587.0
4.4954	457.611239412	585.0
4.5056	457.906163094	611.0
4.5158	458.200544315	611.0
4.5261	458.497262179	592.0
4.5363	458.790556176	623.0
4.5466	459.086178186	583.0
4.5568	459.378388974	598.0
4.567	459.670062292	602.0
4.5773	459.964050757	608.0
4.5875	460.254646852	604.0
4.5978	460.547549544	601.0
4.608	460.837072394	634.0
4.6182	461.126062717	602.0
4.6285	461.417346891	633.0
4.6387	461.7052699	584.0
4.649	461.995478289	569.0
4.6592	462.282337925	579.0
4.6694	462.568669933	561.0
4.6797	462.857274692	564.0
4.6899	463.142549204	588.0
4.7002	463.430088073	678.0
4.7104	463.714308994	604.0
4.7206	463.99800714	627.0
4.7309	464.283957131	618.0
4.7411	464.566607508	586.0
4.7514	464.851501413	634.0
4.7616	465.133107891	602.0
4.7718	465.414196403	633.0
4.7821	465.697516046	626.0
4.7923	465.977566427	606.0
4.8026	466.259839699	588.0
4.8128	466.538855783	603.0
4.823	466.817358665	582.0
4.8333	467.098072156	596.0
4.8435	467.375546457	582.0
4.8538	467.655223202	614.0
4.864	467.93167272	630.0
4.8742	468.207613758	625.0
4.8845	468.485745069	610.0
4.8947	468.760666987	598.0
4.905	469.037771089	604.0
4.9152	469.311677651	578.0
4.9254	469.585080409	599.0
4.9357	469.860653293	597.0
4.9459	470.133046306	601.0
4.9562	470.40760143	595.0
4.9664	470.678988427	606.0
4.9766	470.949876254	612.0
4.9869	471.222914246	581.0
4.9971	471.492801616	548.0
5.0074	471.764831209	612.0
5.0176	472.033721817	606.0
5.0278	472.302117848	591.0
5.0381	472.572644264	578.0
5.0483	472.840049041	598.0
5.0586	473.109576334	570.0
5.0688	473.375993517	581.0
5.079	473.641920672	602.0
5.0893	473.909958616	619.0
5.0995	474.174903635	576.0
5.1098	474.441951647	581.0
5.12	474.705918157	588.0
5.1302	474.969399147	574.0
5.1405	475.234971509	578.0
5.1507	475.497479396	564.0
5.161	475.762070933	573.0
5.1712	476.023609313	571.0
5.1814	476.284666638	610.0
5.1917	476.547796098	603.0
5.2019	476.807889273	569.0
5.2122	477.07004693	537.0
5.2224	477.329179515	583.0
5.2326	477.587835471	542.0
5.2429	477.848544501	569.0
5.2531	478.106245175	545.0
5.2634	478.36599134	505.0
5.2736	478.622740261	579.0
5.2838	478.879016937	595.0
5.2941	479.1373278	589.0
5.3043	479.392657982	523.0
5.3146	479.650014838	533.0
5.3248	479.904402021	572.0
5.335	480.158321302	564.0
5.3453	480.41425606	564.0
5.3555	480.667237553	525.0
5.3658	480.92222708	566.0
5.376	481.174274248	571.0
5.3862	481.42585782	526.0
5.3965	481.679438329	554.0
5.4067	481.93009274	514.0
5.417	482.182736712	532.0
5.4272	482.432465392	481.0
5.4374	482.68173474	545.0
5.4477	482.932982655	553.0
5.4579	483.181331389	541.0
5.4682	483.431651382	524.0
5.4784	483.679082901	465.0
5.4886	483.926059313	478.0
5.4989	484.174996092	488.0
5.5091	484.421060357	520.0
5.5194	484.66907775	537.0
5.5296	484.914233237	499.0
5.5398	485.158937804	477.0
5.5501	485.405584706	502.0
5.5603	485.649385517	506.0
5.5706	485.89512149	513.0
5.5808	486.138021883	483.0
5.591	486.380475504	501.0
5.6013	486.624853592	496.0
5.6115	486.86641177	474.0
5.6218	487.109887308	491.0
5.632	487.350553351	499.0
5.6422	487.59077673	524.0
5.6525	487.832906875	511.0
5.6627	488.072243048	513.0
5.673	488.313478946	595.0
5.6832	488.55193119	513.0
5.6934	488.789944844	527.0
5.7037	489.029847723	523.0
5.7139	489.266982332	467.0
5.7242	489.505999189	476.0
5.7344	489.742258	475.0
5.7446	489.978082254	555.0
5.7549	490.215778355	489.0
5.7651	490.450731651	518.0
5.7754	490.687549881	510.0
5.7856	490.921635434	545.0
5.7958	491.155290428	522.0
5.8061	491.390800051	519.0
5.8163	491.623592098	533.0
5.8266	491.858231925	504.0
5.8368	492.090164212	467.0
5.847	492.3216699	509.0
5.8573	492.555013158	520.0
5.8675	492.785663837	540.0
5.8778	493.018145299	531.0
5.888	493.247944127	536.0
5.8982	493.47732028	514.0
5.9085	493.708517099	540.0
5.9187	493.937046108	513.0
5.929	494.167389059	493.0
5.9392	494.395074053	529.0
5.9494	494.62234026	520.0
5.9597	494.851410385	520.0
5.9699	495.07783724	486.0
5.9802	495.306061352	505.0
5.9904	495.531651955	542.0
6.0006	495.756827624	516.0
6.0109	495.983790618	517.0
6.0211	496.208134657	523.0
6.0314	496.434259419	538.0
6.0416	496.657774899	473.0
6.0518	496.88087926	528.0
6.0621	497.105754506	488.0
6.0723	497.328034887	523.0
6.0826	497.552079611	496.0
6.0928	497.773539054	530.0
6.103	497.994591162	523.0
6.1133	498.217397863	505.0
6.1235	498.437633569	523.0
6.1338	498.659617389	511.0
6.144	498.879039709	521.0
6.1542	499.098058439	479.0
6.1645	499.318815624	515.0
6.1747	499.537025464	483.0
6.185	499.756967337	474.0
6.1952	499.974371272	505.0
6.2054	500.19137533	505.0
6.2157	500.410101852	555.0
6.2259	500.62630446	479.0
6.2362	500.844223169	500.0
6.2464	501.059627286	578.0
6.2566	501.274635204	509.0
6.2669	501.491349742	496.0
6.2771	501.705563582	449.0
6.2874	501.921477737	515.0
6.2976	502.134900432	458.0
6.3078	502.347930572	512.0
6.3181	502.562651632	488.0
6.3283	502.774894999	497.0
6.3386	502.98882304	455.0
6.3488	503.200282538	449.0
6.359	503.411353093	478.0
6.3693	503.624099014	478.0
6.3795	503.834390032	461.0
6.3898	504.046350229	467.0
6.4	504.255864589	483.0
6.4102	504.464993584	450.0
6.4205	504.675782534	479.0
6.4307	504.884139163	421.0
6.441	505.094149616	429.0
6.4512	505.301736731	451.0
6.4614	505.508942026	463.0
6.4717	505.717792007	416.0
6.4819	505.92423204	426.0
6.4922	506.132310685	415.0
6.5024	506.337988284	442.0
6.5126	506.543287574	426.0
6.5229	506.750216421	407.0
6.5331	506.954757489	401.0
6.5434	507.160922095	400.0
6.5536	507.364707741	381.0
6.5638	507.568118559	381.0
6.5741	507.773143944	349.0
6.5843	507.975803515	384.0
6.5946	508.18007169	397.0
6.6048	508.381982787	366.0
6.615	508.583522504	388.0
6.6253	508.786661937	367.0
6.6355	508.987457317	323.0
6.6458	509.189846504	365.0
6.656	509.389900297	328.0
6.6662	509.589586125	329.0
6.6765	509.790856953	360.0
6.6867	509.989805291	303.0
6.697	510.190332775	315.0
6.7072	510.388546346	311.0
6.7174	510.586395338	318.0
6.7277	510.785814751	291.0
6.7379	510.982933036	301.0
6.7482	511.181615942	295.0
6.7584	511.378006221	266.0
6.7686	511.574035273	279.0
6.7789	511.7716203	273.0
6.7891	511.966925368	248.0
6.7994	512.163780663	295.0
6.8096	512.35836442	269.0
6.8198	512.552590274	264.0
6.8301	512.748357789	256.0
6.8403	512.941866318	243.0
6.8506	513.136910815	245.0
6.8608	513.329704668	230.0
6.871	513.52214391	279.0
6.8813	513.716110632	212.0
6.8915	513.907839148	205.0
6.9018	514.101089502	208.0
6.912	514.292109916	236.0
6.9222	514.482778981	190.0
6.9325	514.674961475	194.0
6.9427	514.864926351	197.0
6.953	515.056399067	180.0
6.9632	515.245662355	190.0
6.9734	515.434577526	214.0
6.9837	515.624992205	151.0
6.9939	515.813209664	175.0
7.0042	516.002921093	158.0
7.0144	516.190443418	176.0
7.0246	516.377620828	172.0
7.0349	516.566283953	165.0
7.0451	516.75277007	157.0
7.0554	516.940736414	138.0
7.0656	517.12653379	139.0
7.0758	517.311989424	125.0
7.0861	517.498917107	159.0
7.0963	517.683687807	131.0
7.1066	517.869925119	130.0
7.1168	518.054013414	130.0
7.127	518.23776311	98.0
7.1373	518.422971314	126.0
7.1475	518.606042377	119.0
7.1578	518.790566561	139.0
7.168	518.972961496	119.0
7.1782	519.155020947	83.0
7.1885	519.338525489	107.0
7.1987	519.519912549	95.0
7.209	519.702739363	94.0
7.2192	519.883456514	90.0
7.2294	520.063841268	79.0
7.2397	520.24565782	86.0
7.2499	520.425376368	86.0
7.2602	520.606521425	83.0
7.2704	520.785576227	85.0
7.2806	520.964301688	100.0
7.2909	521.144445777	74.0
7.3011	521.32251116	77.0
7.3114	521.501989931	75.0
7.3216	521.679397674	69.0
7.3318	521.856479106	57.0
7.3421	522.034966116	59.0
7.3523	522.211393542	58.0
7.3626	522.389221354	63.0
7.3728	522.564997189	59.0
7.383	522.740449714	50.0
7.3933	522.917294889	39.0
7.4035	523.092099423	56.0
7.4138	523.268291464	68.0
7.424	523.442450402	62.0
7.4342	523.616289004	42.0
7.4445	523.791507445	39.0
7.4547	523.964704018	37.0
7.465	524.139275333	45.0
7.4752	524.311832247	48.0
7.4854	524.484071773	33.0
7.4957	524.657678445	39.0
7.5059	524.829281846	44.0
7.5162	525.002247345	34.0
7.5264	525.173216972	42.0
7.5366	525.34387213	48.0
7.5469	525.515881858	26.0
7.5571	525.685906743	50.0
7.5674	525.857281196	29.0
7.5776	526.026678137	27.0
7.5878	526.195763501	30.0
7.5981	526.366190975	41.0
7.6083	526.534651865	34.0
7.6186	526.704449908	30.0
7.6288	526.872288629	28.0
7.639	527.039818639	18.0
7.6493	527.208678414	25.0
7.6595	527.375589695	35.0
7.6698	527.543825828	36.0
7.68	527.710120663	27.0
7.6902	527.876109627	16.0
7.7005	528.043416124	23.0
7.7107	528.208792049	17.0
7.721	528.37548064	28.0
7.7312	528.54024579	27.0
7.7414	528.704707884	19.0
7.7517	528.87047539	12.0
