TL-DOS Lehrstuhlversuch
detector=R1407601
job_number=2015-11-05-009
irradiation_dose [mSv]=0.06

[BEGIN DATA]
time [sec] 	 temperature [K] 	 photoncount 
0.0	123.709230684	0.0
0.0102	125.593643568	0.0
0.0205	127.488217725	1.0
0.0307	129.356201218	2.0
0.041	131.234257392	0.0
0.0512	133.085954734	1.0
0.0614	134.929601702	1.0
0.0717	136.783190122	1.0
0.0819	138.610763119	1.0
0.0922	140.448190893	0.0
0.1024	142.259830062	1.0
0.1126	144.063593011	3.0
0.1229	145.877082348	4.0
0.1331	147.665119059	0.0
0.1434	149.462797357	3.0
0.1536	151.235244939	1.0
0.1638	152.99998669	1.0
0.1741	154.774244415	0.0
0.1843	156.523600137	2.0
0.1946	158.282388867	1.0
0.2048	160.016492703	2.0
0.215	161.74305741	0.0
0.2253	163.47893223	1.0
0.2355	165.190443756	1.0
0.2458	166.911184225	1.0
0.256	168.607773813	0.0
0.2662	170.296987369	0.0
0.2765	171.995309629	1.0
0.2867	173.669795653	1.0
0.297	175.353310967	0.0
0.3072	177.013197861	1.0
0.3174	178.66586829	0.0
0.3277	180.327450374	0.0
0.3379	181.965711875	0.0
0.3482	183.612807334	0.0
0.3584	185.236785533	1.0
0.3686	186.853703381	0.0
0.3789	188.479340096	0.0
0.3891	190.082160728	0.0
0.3994	191.693624211	0.0
0.4096	193.282470534	0.0
0.4198	194.864409245	0.0
0.4301	196.454878205	0.0
0.4403	198.023024668	0.0
0.4506	199.599627009	0.0
0.4608	201.154101472	0.0
0.471	202.701817757	0.0
0.4813	204.257879754	1.0
0.4915	205.792102162	0.0
0.5018	207.334597519	1.0
0.512	208.855443697	0.0
0.5222	210.369677896	0.0
0.5325	211.892077265	0.0
0.5427	213.393109503	0.0
0.553	214.902235721	0.0
0.5632	216.390181101	0.0
0.5734	217.871657541	1.0
0.5837	219.361122511	1.0
0.5939	220.829682591	0.0
0.6042	222.306161551	0.0
0.6144	223.761917883	1.0
0.6246	225.21134522	1.0
0.6349	226.668588268	0.0
0.6451	228.105378666	0.0
0.6554	229.549916635	1.0
0.6656	230.974180271	0.0
0.6758	232.392251829	0.0
0.6861	233.81797002	1.0
0.6963	235.223678018	0.0
0.7066	236.636965981	1.0
0.7168	238.030418211	1.0
0.727	239.417812316	0.0
0.7373	240.812687634	0.0
0.7475	242.187985643	0.0
0.7578	243.570699638	0.0
0.768	244.934007011	0.0
0.7782	246.291387317	0.0
0.7885	247.656086992	0.0
0.7987	249.001632878	0.0
0.809	250.354434319	0.0
0.8192	251.688248966	0.0
0.8294	253.016264767	0.0
0.8397	254.351441595	0.0
0.8499	255.667878993	0.0
0.8602	256.991414985	1.0
0.8704	258.296374927	1.0
0.8806	259.595661472	0.0
0.8909	260.901954128	0.0
0.9011	262.189912748	1.0
0.9114	263.484816396	0.0
0.9216	264.761545855	0.0
0.9318	266.032724649	0.0
0.9421	267.31075799	0.0
0.9523	268.57085392	0.0
0.9626	269.837744634	1.0
0.9728	271.086854325	0.0
0.983	272.330533431	0.0
0.9933	273.580918798	0.0
1.0035	274.813754797	0.0
1.0138	276.053238587	0.0
1.024	277.275326015	0.0
1.0342	278.492100339	1.0
1.0445	279.715435845	0.0
1.0547	280.921601633	1.0
1.065	282.1342714	0.0
1.0752	283.329921143	0.0
1.0854	284.520372722	0.0
1.0957	285.717243544	1.0
1.1059	286.897316084	0.0
1.1162	288.0837519	0.0
1.1264	289.253535891	0.0
1.1366	290.418234171	0.0
1.1469	291.589212824	0.0
1.1571	292.743756597	1.0
1.1674	293.904525988	0.0
1.1776	295.049003786	0.0
1.1878	296.188505893	1.0
1.1981	297.334152509	1.0
1.2083	298.463719784	0.0
1.2186	299.599377997	1.0
1.2288	300.719097056	1.0
1.239	301.833948065	3.0
1.2493	302.954810658	0.0
1.2595	304.059941756	0.0
1.2698	305.171032027	0.0
1.28	306.266527959	1.0
1.2902	307.357261152	0.0
1.3005	308.453875879	1.0
1.3107	309.535099435	0.0
1.321	310.622153247	1.0
1.3312	311.693950076	1.0
1.3414	312.761087199	0.0
1.3517	313.83397862	0.0
1.3619	314.891811831	0.0
1.3722	315.955349169	1.0
1.3824	317.003959584	0.0
1.3926	318.048011096	0.0
1.4029	319.097692422	1.0
1.4131	320.132641296	0.0
1.4234	321.173170898	0.0
1.4336	322.199096494	0.0
1.4438	323.220561812	0.0
1.4541	324.247535153	0.0
1.4643	325.260094751	1.0
1.4746	326.278114349	1.0
1.4848	327.281845872	0.0
1.495	328.281213607	0.0
1.5053	329.285970209	0.0
1.5155	330.276624884	1.0
1.5258	331.272621442	1.0
1.536	332.254639021	4.0
1.5462	333.232387216	1.0
1.5565	334.215407698	0.0
1.5667	335.184631324	0.0
1.577	336.15908127	2.0
1.5872	337.119854649	3.0
1.5974	338.076451003	1.0
1.6077	339.038205588	0.0
1.6179	339.986461787	1.0
1.6282	340.939831245	2.0
1.6384	341.879820003	2.0
1.6486	342.815722098	1.0
1.6589	343.756670836	0.0
1.6691	344.684413202	0.0
1.6794	345.617158209	1.0
1.6896	346.536811985	1.0
1.6998	347.452467506	0.0
1.7101	348.373060494	4.0
1.7203	349.280732806	2.0
1.7306	350.193299537	1.0
1.7408	351.093058242	0.0
1.751	351.988905187	1.0
1.7613	352.889582785	0.0
1.7715	353.777619224	0.0
1.7818	354.670444199	2.0
1.792	355.550738227	3.0
1.8022	356.427205119	3.0
1.8125	357.308398162	3.0
1.8227	358.177223514	2.0
1.833	359.050733811	2.0
1.8432	359.911984246	1.0
1.8534	360.769490338	1.0
1.8637	361.631620339	2.0
1.8739	362.481650202	3.0
1.8842	363.33626366	1.0
1.8944	364.178882476	3.0
1.9046	365.017837951	4.0
1.9149	365.861317306	5.0
1.9251	366.692958287	3.0
1.9354	367.529083705	2.0
1.9456	368.353473964	3.0
1.9558	369.174280132	6.0
1.9661	369.999512313	2.0
1.9763	370.813162223	4.0
1.9866	371.631199557	5.0
1.9968	372.437755601	4.0
2.007	373.24080509	3.0
2.0173	374.048184843	3.0
2.0275	374.844232886	4.0
2.0378	375.64457344	5.0
2.048	376.43368108	7.0
2.0582	377.219358024	8.0
2.0685	378.009271554	6.0
2.0787	378.788098516	2.0
2.089	379.571125128	7.0
2.0992	380.34316183	4.0
2.1094	381.111842053	10.0
2.1197	381.884667211	9.0
2.1299	382.646645639	8.0
2.1402	383.412732864	7.0
2.1504	384.168067928	10.0
2.1606	384.920119123	6.0
2.1709	385.676225586	5.0
2.1811	386.421719968	6.0
2.1914	387.171234261	10.0
2.2016	387.910228996	13.0
2.2118	388.646010903	8.0
2.2221	389.385760349	8.0
2.2323	390.115127288	10.0
2.2426	390.848427175	5.0
2.2528	391.571435075	13.0
2.263	392.291299651	12.0
2.2733	393.015045936	13.0
2.2835	393.72863432	13.0
2.2938	394.44607057	10.0
2.304	395.153437482	14.0
2.3142	395.85772907	9.0
2.3245	396.565818393	7.0
2.3347	397.263969564	15.0
2.345	397.965885359	13.0
2.3552	398.657949648	7.0
2.3654	399.347005143	7.0
2.3757	400.039776214	13.0
2.3859	400.722824128	14.0
2.3962	401.409555225	12.0
2.4064	402.086647936	11.0
2.4166	402.760796942	14.0
2.4269	403.438581146	16.0
2.4371	404.106852535	9.0
2.4474	404.778727428	9.0
2.4576	405.441172444	18.0
2.4678	406.100737437	18.0
2.4781	406.763858987	14.0
2.4883	407.417673515	17.0
2.4986	408.075013591	8.0
2.5088	408.72312779	10.0
2.519	409.36842427	10.0
2.5293	410.017200366	16.0
2.5395	410.656870781	7.0
2.5498	411.299990476	14.0
2.56	411.934083878	13.0
2.5702	412.565420518	11.0
2.5805	413.200161499	7.0
2.5907	413.825993784	10.0
2.601	414.45520073	14.0
2.6112	415.075576651	6.0
2.6214	415.693255447	7.0
2.6317	416.314264938	15.0
2.6419	416.926558457	7.0
2.6522	417.542153631	4.0
2.6624	418.149108824	12.0
2.6726	418.75342524	7.0
2.6829	419.361000296	9.0
2.6931	419.960047935	6.0
2.7034	420.562325805	2.0
2.7136	421.156150603	6.0
2.7238	421.74739371	3.0
2.7341	422.341824962	13.0
2.7443	422.927913273	10.0
2.7546	423.517161933	13.0
2.7648	424.09814039	8.0
2.775	424.676593005	7.0
2.7853	425.258164796	4.0
2.7955	425.83157413	2.0
2.8058	426.408075446	11.0
2.816	426.976485468	8.0
2.8262	427.542424292	6.0
2.8365	428.111414813	7.0
2.8467	428.672419458	11.0
2.857	429.236449194	7.0
2.8672	429.792562678	5.0
2.8774	430.346258423	7.0
2.8877	430.902939849	10.0
2.8979	431.451808157	8.0
2.9082	432.003636114	10.0
2.9184	432.547719074	5.0
2.9286	433.089436598	10.0
2.9389	433.634075212	12.0
2.9491	434.171069732	7.0
2.9594	434.710959875	11.0
2.9696	435.243272569	10.0
2.9798	435.773271	5.0
2.9901	436.306127328	7.0
3.0003	436.831504928	7.0
3.0106	437.359715509	14.0
3.0208	437.880512566	15.0
3.031	438.399045425	7.0
3.0413	438.920374355	15.0
3.0515	439.434386347	20.0
3.0618	439.951170033	5.0
3.072	440.460700574	6.0
3.0822	440.968015897	9.0
3.0925	441.478066805	8.0
3.1027	441.980959063	13.0
3.113	442.486563054	10.0
3.1232	442.985070809	12.0
3.1334	443.48141127	12.0
3.1437	443.980428135	9.0
3.1539	444.472441214	16.0
3.1642	444.967107364	14.0
3.1744	445.454830792	12.0
3.1846	445.940433811	16.0
3.1949	446.428655335	9.0
3.2051	446.910024588	14.0
3.2154	447.393989517	10.0
3.2256	447.871161917	20.0
3.2358	448.346259779	12.0
3.2461	448.8239195	13.0
3.2563	449.294875187	9.0
3.2666	449.768370397	7.0
3.2768	450.235220022	15.0
3.287	450.700039988	6.0
3.2973	451.167366392	14.0
3.3075	451.628133792	17.0
3.3178	452.091385776	11.0
3.328	452.548135941	15.0
3.3382	453.002900356	17.0
3.3485	453.460116985	10.0
3.3587	453.910916503	9.0
3.369	454.364146856	11.0
3.3792	454.811016045	15.0
3.3894	455.255942441	8.0
3.3997	455.703268003	14.0
3.4099	456.144315276	14.0
3.4202	456.587740798	9.0
3.4304	457.024942768	9.0
3.4406	457.460243974	5.0
3.4509	457.897892445	6.0
3.4611	458.329398446	11.0
3.4714	458.763231246	10.0
3.4816	459.190975131	12.0
3.4918	459.616859371	8.0
3.5021	460.045040096	10.0
3.5123	460.467211233	8.0
3.5226	460.891658834	10.0
3.5328	461.310149241	11.0
3.543	461.726820234	10.0
3.5533	462.145738032	15.0
3.5635	462.558776249	14.0
3.5738	462.974041682	7.0
3.584	463.383478795	6.0
3.5942	463.791135853	12.0
3.6045	464.200991111	13.0
3.6147	464.605093982	17.0
3.625	465.011375887	6.0
3.6352	465.411955557	10.0
3.6454	465.810793681	10.0
3.6557	466.21178245	12.0
3.6659	466.607143275	14.0
3.6762	467.004635995	11.0
3.6864	467.396549838	3.0
3.6966	467.786759809	9.0
3.7069	468.179073901	9.0
3.7171	468.565881799	8.0
3.7274	468.954775471	12.0
3.7376	469.338210956	16.0
3.7478	469.71997943	5.0
3.7581	470.103806505	12.0
3.7683	470.482246503	7.0
3.7786	470.862727154	10.0
3.7888	471.237867695	11.0
3.799	471.611377289	10.0
3.8093	471.986900949	7.0
3.8195	472.357154071	22.0
3.8298	472.729403701	7.0
3.84	473.096428745	8.0
3.8502	473.461858123	2.0
3.8605	473.829257998	14.0
3.8707	474.191501354	17.0
3.881	474.555698026	9.0
3.8912	474.914783136	5.0
3.9014	475.272307101	10.0
3.9117	475.631758934	10.0
3.9219	475.9861658	13.0
3.9322	476.342483726	12.0
3.9424	476.69380067	6.0
3.9526	477.043590241	7.0
3.9629	477.395265974	7.0
3.9731	477.742005878	3.0
3.9834	478.090615501	4.0
3.9936	478.434332328	6.0
4.0038	478.776554825	13.0
4.0141	479.12062268	11.0
4.0243	479.459861484	9.0
4.0346	479.800929558	9.0
4.0448	480.137210685	19.0
4.055	480.472029807	14.0
4.0653	480.808654367	9.0
4.0755	481.140554344	13.0
4.0858	481.474244018	11.0
4.096	481.803250301	8.0
4.1062	482.130826208	11.0
4.1165	482.460168495	4.0
4.1267	482.784888408	12.0
4.137	483.1113593	8.0
4.1472	483.433248118	7.0
4.1574	483.753737504	11.0
4.1677	484.075955057	5.0
4.1779	484.393650233	12.0
4.1882	484.713058509	9.0
4.1984	485.027983836	7.0
4.2086	485.341540005	8.0
4.2189	485.656786955	10.0
4.2291	485.967609362	12.0
4.2394	486.280107809	13.0
4.2496	486.588220288	13.0
4.2598	486.894993227	12.0
4.2701	487.203420371	11.0
4.2803	487.507518689	11.0
4.2906	487.813256788	7.0
4.3008	488.114703803	11.0
4.311	488.414840256	5.0
4.3213	488.716595128	6.0
4.3315	489.014114821	2.0
4.3418	489.313238821	5.0
4.352	489.608164566	12.0
4.3622	489.901808102	9.0
4.3725	490.197035045	8.0
4.3827	490.488118429	7.0
4.393	490.780771414	9.0
4.4032	491.069316966	5.0
4.4134	491.356608047	12.0
4.4237	491.645448281	18.0
4.4339	491.930234594	11.0
4.4442	492.216556554	6.0
4.4544	492.498859937	3.0
4.4646	492.779935987	15.0
4.4749	493.062527677	7.0
4.4851	493.341153146	9.0
4.4954	493.62128104	5.0
4.5056	493.897477292	6.0
4.5158	494.172472763	9.0
4.5261	494.448951085	5.0
4.5363	494.721548988	6.0
4.5466	494.995616814	8.0
4.5568	495.265838052	6.0
4.567	495.534884485	6.0
4.5773	495.805381692	8.0
4.5875	496.072082424	8.0
4.5978	496.340221281	9.0
4.608	496.604596764	18.0
4.6182	496.867822857	10.0
4.6285	497.132468338	7.0
4.6387	497.393399476	2.0
4.649	497.655737626	7.0
4.6592	497.914393816	6.0
4.6694	498.171925482	10.0
4.6797	498.43084583	10.0
4.6899	498.686132187	9.0
4.7002	498.942795118	8.0
4.7104	499.195855743	11.0
4.7206	499.44781617	7.0
4.7309	499.701135237	2.0
4.7411	499.950898928	11.0
4.7514	500.202009414	7.0
4.7616	500.449595523	8.0
4.7718	500.696105235	7.0
4.7821	500.943944195	7.0
4.7923	501.188304694	9.0
4.8026	501.433982852	7.0
4.8128	501.676212876	7.0
4.823	501.91738979	8.0
4.8333	502.159867196	2.0
4.8435	502.398941391	10.0
4.8538	502.639304739	7.0
4.864	502.876294548	8.0
4.8742	503.112254029	4.0
4.8845	503.349485868	5.0
4.8947	503.583388119	6.0
4.905	503.818551635	6.0
4.9152	504.050414591	5.0
4.9254	504.281269509	7.0
4.9357	504.51336926	9.0
4.9459	504.742211452	9.0
4.9562	504.972287624	5.0
4.9664	505.199134638	5.0
4.9766	505.424995421	3.0
4.9869	505.652074107	7.0
4.9971	505.875965706	8.0
5.0074	506.10106459	2.0
5.0176	506.323004174	6.0
5.0278	506.54397886	11.0
5.0381	506.766145104	4.0
5.0483	506.985193207	9.0
5.0586	507.205422477	12.0
5.0688	507.422560793	5.0
5.079	507.638755086	10.0
5.0893	507.856115159	8.0
5.0995	508.070424546	7.0
5.1098	508.285889549	5.0
5.12	508.498330464	8.0
5.1302	508.709847779	6.0
5.1405	508.922505653	5.0
5.1507	509.132178839	6.0
5.161	509.34298264	12.0
5.1712	509.550827775	8.0
5.1814	509.757769289	5.0
5.1917	509.965826689	6.0
5.2019	510.170963969	13.0
5.2122	510.377207405	7.0
5.2224	510.580556181	8.0
5.2326	510.783020884	4.0
5.2429	510.986577333	7.0
5.2531	511.187276833	4.0
5.2634	511.38905856	6.0
5.2736	511.588008247	5.0
5.2838	511.786092987	4.0
5.2941	511.985245855	4.0
5.3043	512.181603578	7.0
5.3146	512.379020117	1.0
5.3248	512.573665882	1.0
5.335	512.767465412	3.0
5.3453	512.962309962	1.0
5.3555	513.154419836	3.0
5.3658	513.34756562	4.0
5.376	513.53800057	3.0
5.3862	513.727607592	6.0
5.3965	513.918237028	6.0
5.4067	514.106190947	8.0
5.417	514.295158366	2.0
5.4272	514.481473595	2.0
5.4374	514.666978807	4.0
5.4477	514.853484314	5.0
5.4579	515.037372185	0.0
5.4682	515.22225163	5.0
5.4784	515.404536262	3.0
5.4886	515.586028399	4.0
5.4989	515.768499192	3.0
5.5091	515.948408976	3.0
5.5194	516.129288884	0.0
5.5296	516.307630112	4.0
5.5398	516.48519599	0.0
5.5501	516.663719352	2.0
5.5603	516.839737109	0.0
5.5706	517.016704002	4.0
5.5808	517.191187135	1.0
5.591	517.364911692	1.0
5.6013	517.539573019	2.0
5.6115	517.711782945	4.0
5.6218	517.884921475	3.0
5.632	518.055629977	1.0
5.6422	518.225596312	4.0
5.6525	518.396479152	2.0
5.6627	518.564963624	1.0
5.673	518.73435661	2.0
5.6832	518.901372137	2.0
5.6934	519.067661553	1.0
5.7037	519.234847648	1.0
5.7139	519.399687257	4.0
5.7242	519.565415728	4.0
5.7344	519.728818172	0.0
5.7446	519.891510213	1.0
5.7549	520.055079534	1.0
5.7651	520.216353133	1.0
5.7754	520.378496363	0.0
5.7856	520.538363886	0.0
5.7958	520.697536374	1.0
5.8061	520.857567165	1.0
5.8163	521.015351896	0.0
5.8266	521.173987446	0.0
5.8368	521.33039652	1.0
5.847	521.486125595	0.0
5.8573	521.642694405	1.0
5.8675	521.797065745	1.0
5.8778	521.952269497	1.0
5.888	522.10529494	3.0
5.8982	522.257655094	3.0
5.9085	522.410836816	0.0
5.9187	522.561868607	0.0
5.929	522.713714803	0.0
5.9392	522.863429812	0.0
5.9494	523.012493926	0.0
5.9597	523.162361834	0.0
5.9699	523.310126321	1.0
5.9802	523.458687595	0.0
5.9904	523.605163787	1.0
6.0006	523.751003164	1.0
6.0109	523.897628947	0.0
6.0211	524.042196813	2.0
6.0314	524.187544228	0.0
6.0416	524.330851669	1.0
6.0518	524.47353607	1.0
6.0621	524.616989866	2.0
6.0723	524.758430263	1.0
6.0826	524.900633347	1.0
6.0928	525.040840586	1.0
6.103	525.180438265	1.0
6.1133	525.320788693	3.0
6.1235	525.459169279	0.0
6.1338	525.598296052	1.0
6.144	525.735470157	0.0
6.1542	525.872047889	2.0
6.1645	526.009362086	0.0
6.1747	526.144749055	0.0
6.185	526.280866067	3.0
6.1952	526.415072655	0.0
6.2054	526.548695771	0.0
6.2157	526.68303942	0.0
6.2259	526.815497533	3.0
6.2362	526.948669897	0.0
6.2464	527.079973164	3.0
6.2566	527.210705582	0.0
6.2669	527.342142945	0.0
6.2771	527.471735563	0.0
6.2874	527.602026979	0.0
6.2976	527.730489734	1.0
6.3078	527.858393989	1.0
6.3181	527.986987939	0.0
6.3283	528.113777051	1.0
6.3386	528.241249846	0.0
6.3488	528.366933538	1.0
6.359	528.492070812	2.0
6.3693	528.617882861	1.0
6.3795	528.741929116	0.0
6.3898	528.866644264	1.0
6.4	528.989609013	0.0
6.4102	529.112039165	0.0
6.4205	529.235129495	1.0
6.4307	529.35649223	0.0
6.441	529.478509388	1.0
6.4512	529.598814014	0.0
6.4614	529.718595608	0.0
6.4717	529.839023097	1.0
6.4819	529.957760366	0.0
6.4922	530.0771379	0.0
6.5024	530.194839949	1.0
6.5126	530.312030282	0.0
6.5229	530.429852537	0.0
6.5331	530.546021137	2.0
6.5434	530.66281615	0.0
6.5536	530.777971926	0.0
6.5638	530.892627054	0.0
6.5741	531.007900434	0.0
6.5843	531.121555934	1.0
6.5946	531.235824295	0.0
6.6048	531.34848888	1.0
6.615	531.460663649	0.0
6.6253	531.573443295	2.0
6.6355	531.68464006	0.0
6.6458	531.796436429	2.0
6.656	531.906663717	0.0
6.6662	532.016411785	0.0
6.6765	532.126751644	1.0
6.6867	532.235542865	0.0
6.697	532.344920718	0.0
6.7072	532.452763435	1.0
6.7174	532.560137299	0.0
6.7277	532.668090152	0.0
6.7379	532.774527869	1.0
6.7482	532.881539527	0.0
6.7584	532.987049259	0.0
6.7686	533.09210028	2.0
6.7789	533.197717766	0.0
6.7891	533.301852892	0.0
6.7994	533.406549544	0.0
6.8096	533.509776761	0.0
6.8198	533.61255519	0.0
6.8301	533.71588783	0.0
6.8403	533.817770178	0.0
6.8506	533.920201904	0.0
6.8608	534.021195984	1.0
6.871	534.121750985	0.0
6.8813	534.222848207	1.0
6.8915	534.322526512	0.0
6.9018	534.422742311	0.0
6.912	534.521551563	1.0
6.9222	534.619931236	2.0
6.9325	534.7188414	1.0
6.9427	534.816363343	2.0
6.953	534.914411151	1.0
6.9632	535.011082841	0.0
6.9734	535.107334245	1.0
6.9837	535.204104663	0.0
6.9939	535.299516893	0.0
7.0042	535.395443611	0.0
7.0144	535.490023982	2.0
7.0246	535.584193158	0.0
7.0349	535.678870121	0.0
7.0451	535.772218276	0.0
7.0554	535.866069791	1.0
7.0656	535.958604084	0.0
7.0758	536.050736078	0.0
7.0861	536.143364873	0.0
7.0963	536.234693608	2.0
7.1066	536.326514812	1.0
7.1168	536.41704729	0.0
7.127	536.507186173	1.0
7.1373	536.597811109	1.0
7.1475	536.687164109	0.0
7.1578	536.776998925	0.0
7.168	536.865572894	4.0
7.1782	536.953761783	1.0
7.1885	537.04242621	0.0
7.1987	537.129846217	1.0
7.209	537.217737617	1.0
7.2192	537.304395446	1.0
7.2294	537.390676525	0.0
7.2397	537.477422855	3.0
7.2499	537.562951686	2.0
7.2602	537.648941712	1.0
7.2704	537.733724854	0.0
7.2806	537.818139395	0.0
7.2909	537.903009123	1.0
7.3011	537.98668769	1.0
7.3114	538.070817475	0.0
7.3216	538.153766484	0.0
7.3318	538.236354867	0.0
7.3421	538.31938859	0.0
7.3523	538.40125692	2.0
7.3626	538.483566707	0.0
7.3728	538.564721262	0.0
7.383	538.645522993	0.0
7.3933	538.726760429	0.0
7.4035	538.806857683	2.0
7.4138	538.887386845	1.0
7.424	538.966785766	1.0
7.4342	539.045839495	0.0
7.4445	539.125319503	1.0
7.4547	539.203683997	0.0
7.465	539.282471053	1.0
7.4752	539.36015232	1.0
7.4854	539.437495862	0.0
7.4957	539.515256462	0.0
7.5059	539.59192568	1.0
7.5162	539.669008318	3.0
7.5264	539.745009089	1.0
7.5366	539.820679442	1.0
7.5469	539.89675783	0.0
7.5571	539.971768445	1.0
7.5674	540.047183538	0.0
7.5776	540.121540168	0.0
7.5878	540.195573528	1.0
7.5981	540.270006095	0.0
7.6083	540.343393989	0.0
7.6186	540.417177611	0.0
7.6288	540.489925668	1.0
7.639	540.562357447	0.0
7.6493	540.635179799	0.0
7.6595	540.706980077	1.0
7.6698	540.779167522	0.0
7.68	540.850341803	1.0
7.6902	540.921206651	0.0
7.7005	540.99245362	1.0
7.7107	541.062700627	1.0
7.721	541.133326425	3.0
7.7312	541.202960978	0.0
7.7414	541.27229279	1.0
7.7517	541.341998459	0.0
7.7619	541.410725797	0.0
7.7722	541.479823731	1.0
7.7824	541.547951865	0.0
7.7926	541.615783807	0.0
7.8029	541.683981517	0.0
7.8131	541.751222062	0.0
7.8234	541.818825186	0.0
7.8336	541.885479488	2.0
7.8438	541.951844007	2.0
7.8541	542.018566382	1.0
7.8643	542.084352297	0.0
7.8746	542.150492947	0.0
7.8848	542.215705303	0.0
7.895	542.280634144	0.0
7.9053	542.345913099	0.0
7.9155	542.410275852	1.0
7.9258	542.474985668	0.0
7.936	542.53878727	2.0
7.9462	542.602311491	1.0
7.9565	542.666178252	1.0
7.9667	542.729148633	2.0
7.977	542.792458566	0.0
7.9872	542.854879935	0.0
7.9974	542.917029922	0.0
8.0077	542.97951504	0.0
8.0179	543.041123168	2.0
8.0282	543.103063504	0.0
8.0384	543.164134498	0.0
8.0486	543.224939981	0.0
8.0589	543.286073344	1.0
8.0691	543.34634869	0.0
8.0794	543.406949058	0.0
8.0896	543.466698889	0.0
8.0998	543.526188954	2.0
8.1101	543.585999806	1.0
8.1203	543.644971202	0.0
8.1306	543.704260588	0.0
