TL-DOS Lehrstuhlversuch
detector=R1406804
job_number=2015-10-23-004
irradiation_dose [mSv]=4.0

[BEGIN DATA]
time [sec] 	 temperature [K] 	 photoncount 
0.0	105.095836314	0.0
0.0102	107.029031518	0.0
0.0205	108.972646366	2.0
0.0307	110.888977642	0.0
0.041	112.815637668	1.0
0.0512	114.715252126	2.0
0.0614	116.606603356	0.0
0.0717	118.508148698	0.0
0.0819	120.38300102	2.0
0.0922	122.267958526	4.0
0.1024	124.126455865	0.0
0.1126	125.976868834	1.0
0.1229	127.837255263	0.0
0.1331	129.671526442	1.0
0.1434	131.515684078	2.0
0.1536	133.333954277	0.0
0.1638	135.144315093	2.0
0.1741	136.964433493	3.0
0.1843	138.759001907	2.0
0.1946	140.563242787	0.0
0.2048	142.342156562	2.0
0.215	144.113332152	1.0
0.2253	145.894054124	1.0
0.2355	147.649779139	0.0
0.2458	149.414967259	0.0
0.256	151.155376479	0.0
0.2662	152.888215007	0.0
0.2765	154.630393286	0.0
0.2867	156.348115666	0.0
0.297	158.075096323	0.0
0.3072	159.777834419	0.0
0.3174	161.47316569	0.0
0.3277	163.177634552	0.0
0.3379	164.858176864	0.0
0.3482	166.547777057	0.0
0.3584	168.21365942	0.0
0.3686	169.872295278	0.0
0.3789	171.539870944	0.0
0.3891	173.18403795	0.0
0.3994	174.837066779	0.0
0.4096	176.466891149	0.0
0.4198	178.089625865	0.0
0.4301	179.721106888	0.0
0.4403	181.32968593	0.0
0.4506	182.946934981	0.0
0.4608	184.541481834	0.0
0.471	186.129092488	1.0
0.4813	187.725260135	0.0
0.4915	189.299021514	0.0
0.5018	190.881265241	0.0
0.512	192.441298157	0.0
0.5222	193.994545009	0.0
0.5325	195.556163637	0.0
0.5427	197.095860981	0.0
0.553	198.643857072	0.0
0.5632	200.170123106	0.0
0.5734	201.689749959	0.0
0.5837	203.217567382	0.0
0.5939	204.723938006	0.0
0.6042	206.238427751	0.0
0.6144	207.731657785	0.0
0.6246	209.218392344	0.0
0.6349	210.713140188	0.0
0.6451	212.186905449	0.0
0.6554	213.668614092	0.0
0.6656	215.12952319	0.0
0.6758	216.584077408	0.0
0.6861	218.046471463	0.0
0.6963	219.488337103	0.0
0.7066	220.93797419	0.0
0.7168	222.367261939	0.0
0.727	223.790332358	0.0
0.7373	225.221072922	1.0
0.7475	226.631729407	0.0
0.7578	228.049989128	0.0
0.768	229.44833997	0.0
0.7782	230.840608057	0.0
0.7885	232.240380268	0.0
0.7987	233.620503121	0.0
0.809	235.008064636	0.0
0.8192	236.376148202	0.0
0.8294	237.738280672	0.0
0.8397	239.107754841	0.0
0.8499	240.45800496	0.0
0.8602	241.815532733	0.0
0.8704	243.154004156	0.0
0.8806	244.486653295	0.0
0.8909	245.826485221	0.0
0.9011	247.147509202	0.0
0.9114	248.475653312	0.0
0.9216	249.785153546	0.0
0.9318	251.08895752	0.0
0.9421	252.399788809	0.0
0.9523	253.692219252	1.0
0.9626	254.991615708	0.0
0.9728	256.272771834	0.0
0.983	257.548354996	0.0
0.9933	258.830813367	0.0
1.0035	260.095269177	2.0
1.0138	261.366540221	0.0
1.024	262.619965747	0.0
1.0342	263.867938935	0.0
1.0445	265.122638519	0.0
1.0547	266.359725207	0.0
1.065	267.603479614	0.0
1.0752	268.829774769	0.0
1.0854	270.050735601	0.0
1.0957	271.278277236	1.0
1.1059	272.488587207	2.0
1.1162	273.705420573	0.0
1.1264	274.905172592	1.0
1.1366	276.09970575	1.0
1.1469	277.30067727	0.0
1.1571	278.484790104	0.0
1.1674	279.675285135	0.0
1.1776	280.849068545	0.0
1.1878	282.017746055	0.0
1.1981	283.19272257	0.0
1.2083	284.351205304	1.0
1.2186	285.515932093	2.0
1.2288	286.664308982	0.0
1.239	287.807690491	0.0
1.2493	288.957234661	0.0
1.2595	290.090642058	1.0
1.2698	291.230158358	2.0
1.28	292.353678651	1.0
1.2902	293.472311689	1.0
1.3005	294.596973997	3.0
1.3107	295.705848812	1.0
1.321	296.820700303	1.0
1.3312	297.919902022	2.0
1.3414	299.014322268	0.0
1.3517	300.114641282	2.0
1.3619	301.199514523	2.0
1.3722	302.290235075	2.0
1.3824	303.365644593	0.0
1.3926	304.436376134	4.0
1.4029	305.512878764	2.0
1.4131	306.574269944	3.0
1.4234	307.64138187	0.0
1.4336	308.69351417	1.0
1.4438	309.741069747	2.0
1.4541	310.794271498	0.0
1.4643	311.832688886	2.0
1.4746	312.876703195	3.0
1.4848	313.906062111	3.0
1.495	314.930943367	0.0
1.5053	315.961348586	4.0
1.5155	316.97728945	4.0
1.5258	317.998706089	6.0
1.536	319.005784551	2.0
1.5462	320.008482272	7.0
1.5565	321.016584389	4.0
1.5667	322.010535232	3.0
1.577	323.009843327	4.0
1.5872	323.995123595	3.0
1.5974	324.976117943	8.0
1.6077	325.962399709	6.0
1.6179	326.934836505	3.0
1.6282	327.912514596	2.0
1.6384	328.87646849	6.0
1.6486	329.836229234	11.0
1.6589	330.801162951	6.0
1.6691	331.752551371	8.0
1.6794	332.709067637	13.0
1.6896	333.652156768	12.0
1.6998	334.591143509	12.0
1.7101	335.535191254	6.0
1.7203	336.465986889	23.0
1.7306	337.40179938	11.0
1.7408	338.324475364	14.0
1.751	339.243137755	18.0
1.7613	340.166751604	20.0
1.7715	341.077400186	19.0
1.7818	341.992957032	16.0
1.792	342.895661713	19.0
1.8022	343.794439674	26.0
1.8125	344.698061918	25.0
1.8227	345.588999529	35.0
1.833	346.484739165	25.0
1.8432	347.36790482	24.0
1.8534	348.247228749	37.0
1.8637	349.131292107	35.0
1.8739	350.00294539	46.0
1.8842	350.879296759	46.0
1.8944	351.74334631	35.0
1.9046	352.603637289	47.0
1.9149	353.468565112	40.0
1.9251	354.321351477	61.0
1.9354	355.178734237	55.0
1.9456	356.024081452	50.0
1.9558	356.865751449	58.0
1.9661	357.711957926	48.0
1.9763	358.546285746	75.0
1.9866	359.385110472	80.0
1.9968	360.212160163	52.0
2.007	361.035612229	76.0
2.0173	361.863502583	69.0
2.0275	362.679771393	92.0
2.0378	363.500439774	80.0
2.048	364.309587989	104.0
2.0582	365.115216451	111.0
2.0685	365.925187134	113.0
2.0787	366.723787821	137.0
2.089	367.526692851	118.0
2.0992	368.318327069	128.0
2.1094	369.106517718	145.0
2.1197	369.898956601	133.0
2.1299	370.680271591	173.0
2.1402	371.465797757	162.0
2.1504	372.240297067	169.0
2.1606	373.011427344	200.0
2.1709	373.786713903	174.0
2.1811	374.551117345	182.0
2.1914	375.319640811	227.0
2.2016	376.077376099	238.0
2.2118	376.831815276	231.0
2.2221	377.590320772	237.0
2.2323	378.338178716	271.0
2.2426	379.090067507	278.0
2.2528	379.831401628	288.0
2.263	380.569510984	297.0
2.2733	381.311598642	301.0
2.2835	382.043269215	314.0
2.2938	382.778883387	314.0
2.304	383.504171346	306.0
2.3142	384.226304339	403.0
2.3245	384.952329524	418.0
2.3347	385.668163101	423.0
2.345	386.387854919	427.0
2.3552	387.097444033	445.0
2.3654	387.803946471	426.0
2.3757	388.514256855	467.0
2.3859	389.214596228	445.0
2.3962	389.91871033	490.0
2.4064	390.612940401	534.0
2.4166	391.304150607	538.0
2.4269	391.999086336	589.0
2.4371	392.684266877	563.0
2.4474	393.373140442	574.0
2.4576	394.052343917	589.0
2.4678	394.728592891	619.0
2.4781	395.40848675	637.0
2.4883	396.078836571	623.0
2.4986	396.752799481	645.0
2.5088	397.417301609	634.0
2.519	398.078913187	642.0
2.5293	398.744090756	712.0
2.5395	399.399930868	625.0
2.5498	400.059305864	697.0
2.56	400.709424856	711.0
2.5702	401.356715864	750.0
2.5805	402.007495677	686.0
2.5907	402.649140142	710.0
2.601	403.294242978	722.0
2.6112	403.930290158	706.0
2.6214	404.563570564	712.0
2.6317	405.20026426	716.0
2.6419	405.828020343	667.0
2.6522	406.459159941	719.0
2.6624	407.081439891	660.0
2.6726	407.701012955	658.0
2.6829	408.323925428	689.0
2.6931	408.938093743	668.0
2.7034	409.555572336	656.0
2.7136	410.164383048	619.0
2.7238	410.770545465	621.0
2.7341	411.37997501	555.0
2.7443	411.980849663	567.0
2.7546	412.584962943	590.0
2.7648	413.180595959	576.0
2.775	413.773638002	528.0
2.7853	414.369876456	520.0
2.7955	414.957745188	534.0
2.8058	415.548782449	493.0
2.816	416.131522999	472.0
2.8262	416.711728658	480.0
2.8365	417.295061542	424.0
2.8467	417.870205867	455.0
2.857	418.448450137	457.0
2.8672	419.01857728	390.0
2.8774	419.586224398	408.0
2.8877	420.156931053	363.0
2.8979	420.71962639	387.0
2.9082	421.285354573	426.0
2.9184	421.843141325	378.0
2.9286	422.398501732	376.0
2.9389	422.956855452	368.0
2.9491	423.507371259	388.0
2.9594	424.060854267	390.0
2.9696	424.606567735	394.0
2.9798	425.149907377	405.0
2.9901	425.696175541	382.0
3.0003	426.234775444	377.0
3.0106	426.776278322	415.0
3.0208	427.310179833	416.0
3.031	427.841758898	445.0
3.0413	428.376203099	406.0
3.0515	428.903145017	430.0
3.0618	429.432927076	450.0
3.072	429.955272298	492.0
3.0822	430.475345345	462.0
3.0925	430.998221511	471.0
3.1027	431.513757781	460.0
3.113	432.032072718	491.0
3.1232	432.543111787	511.0
3.1334	433.051927863	543.0
3.1437	433.563486384	539.0
3.1539	434.067863881	527.0
3.1642	434.574959901	536.0
3.1744	435.07493754	581.0
3.1846	435.572740301	591.0
3.1949	436.073226148	611.0
3.2051	436.566686404	630.0
3.2154	437.06280634	651.0
3.2256	437.551961972	609.0
3.2358	438.038989802	644.0
3.2461	438.528642642	627.0
3.2563	439.01142196	636.0
3.2666	439.49680339	690.0
3.2768	439.975371258	684.0
3.287	440.451857379	668.0
3.2973	440.930911693	745.0
3.3075	441.403241262	724.0
3.3178	441.87811662	713.0
3.328	442.346325895	770.0
3.3382	442.812498484	746.0
3.3485	443.281183676	783.0
3.3587	443.74328968	716.0
3.369	444.20788637	723.0
3.3792	444.665961264	772.0
3.3894	445.122043556	732.0
3.3997	445.580584066	759.0
3.4099	446.032687795	788.0
3.4202	446.487228298	835.0
3.4304	446.93538817	760.0
3.4406	447.38159857	770.0
3.4509	447.830213979	747.0
3.4611	448.272531931	819.0
3.4714	448.717233914	816.0
3.4816	449.155693374	801.0
3.4918	449.592245558	799.0
3.5021	450.031150695	757.0
3.5123	450.463894684	755.0
3.5226	450.8989711	758.0
3.5328	451.327940114	756.0
3.543	451.755043134	747.0
3.5533	452.184448178	712.0
3.5635	452.607825431	702.0
3.5738	453.033484626	759.0
3.584	453.453168614	714.0
3.5942	453.871026997	722.0
3.6045	454.291137577	677.0
3.6147	454.705350838	720.0
3.625	455.121796648	703.0
3.6352	455.532396584	678.0
3.6454	455.94121043	670.0
3.6557	456.352227724	674.0
3.6659	456.757475347	691.0
3.6762	457.164907196	659.0
3.6864	457.566619703	632.0
3.6966	457.966584782	655.0
3.7069	458.368705615	626.0
3.7171	458.76518166	638.0
3.7274	459.163794654	621.0
3.7376	459.556812102	643.0
3.7478	459.948119944	626.0
3.7581	460.341536879	640.0
3.7683	460.729431208	553.0
3.7786	461.119416232	582.0
3.7888	461.503926825	571.0
3.799	461.886764816	619.0
3.8093	462.271666249	610.0
3.8195	462.651164612	605.0
3.8298	463.032708417	609.0
3.84	463.408896286	639.0
3.8502	463.783447756	591.0
3.8605	464.160018005	589.0
3.8707	464.531302133	602.0
3.881	464.90458743	593.0
3.8912	465.272632719	603.0
3.9014	465.63907703	577.0
3.9117	466.007496423	644.0
3.9219	466.370744113	569.0
3.9322	466.735949657	636.0
3.9424	467.096028613	604.0
3.9526	467.454541243	592.0
3.9629	467.814986205	581.0
3.9731	468.170371407	597.0
3.9834	468.527672083	602.0
3.9936	468.879957137	608.0
4.0038	469.230709768	611.0
4.0141	469.583352906	605.0
4.0243	469.931045801	556.0
4.0346	470.280612711	621.0
4.0448	470.625272562	556.0
4.055	470.968433159	603.0
4.0653	471.313443343	602.0
4.0755	471.653610432	593.0
4.0858	471.995610973	594.0
4.096	472.332810668	563.0
4.1062	472.66854356	593.0
4.1165	473.006086005	591.0
4.1267	473.338890184	587.0
4.137	473.67348813	633.0
4.1472	474.003389144	602.0
4.1574	474.331855104	617.0
4.1677	474.662091449	586.0
4.1779	474.987692088	551.0
4.1882	475.315047668	584.0
4.1984	475.63780798	560.0
4.2086	475.959164301	584.0
4.2189	476.282252687	543.0
4.2291	476.600805706	556.0
4.2394	476.921075681	572.0
4.2496	477.236849852	595.0
4.2598	477.551250422	539.0
4.2701	477.867345566	527.0
4.2803	478.179003511	529.0
4.2906	478.492341247	569.0
4.3008	478.801280493	556.0
4.311	479.108875869	545.0
4.3213	479.418129139	556.0
4.3315	479.723041254	521.0
4.3418	480.029596801	571.0
4.352	480.331849063	517.0
4.3622	480.632786542	535.0
4.3725	480.935346031	487.0
4.3827	481.233658329	539.0
4.393	481.533578487	507.0
4.4032	481.829288504	518.0
4.4134	482.123712198	557.0
4.4237	482.419722792	496.0
4.4339	482.711578126	519.0
4.4442	483.005006519	485.0
4.4544	483.294315898	508.0
4.4646	483.582366796	475.0
4.4749	483.871970247	540.0
4.4851	484.157508378	486.0
4.4954	484.444585518	507.0
4.5056	484.727632801	515.0
4.5158	485.009448843	487.0
4.5261	485.292783833	469.0
4.5363	485.572141496	489.0
4.5466	485.853004857	487.0
4.5568	486.129925588	525.0
4.567	486.405641727	481.0
4.5773	486.682843936	509.0
4.5875	486.956154908	510.0
4.5978	487.230938987	456.0
4.608	487.501865773	508.0
4.6182	487.771614042	473.0
4.6285	488.042816214	471.0
4.6387	488.310211376	509.0
4.649	488.579047758	492.0
4.6592	488.84411034	484.0
4.6694	489.108019912	476.0
4.6797	489.373351919	451.0
4.6899	489.634959317	491.0
4.7002	489.897976741	489.0
4.7104	490.157302048	463.0
4.7206	490.415499302	482.0
4.7309	490.675088203	454.0
4.7411	490.931033114	450.0
4.7514	491.188357531	473.0
4.7616	491.442069746	458.0
4.7718	491.694678326	486.0
4.7821	491.94864843	448.0
4.7923	492.199053418	459.0
4.8026	492.450808053	465.0
4.8128	492.699028672	473.0
4.823	492.946169544	472.0
4.8333	493.19464247	466.0
4.8435	493.439627447	486.0
4.8538	493.685932858	434.0
4.864	493.928780746	446.0
4.8742	494.170572259	445.0
4.8845	494.413666993	447.0
4.8947	494.653349275	446.0
4.905	494.89432341	486.0
4.9152	495.13191486	469.0
4.9254	495.3684728	460.0
4.9357	495.606305753	465.0
4.9459	495.840800116	461.0
4.9562	496.076558371	465.0
4.9664	496.309007159	459.0
4.9766	496.540444807	449.0
4.9869	496.77312987	459.0
4.9971	497.002548607	472.0
5.0074	497.233203879	458.0
5.0176	497.460621317	477.0
5.0278	497.687049501	499.0
5.0381	497.914698101	479.0
5.0483	498.139151074	461.0
5.0586	498.364813816	454.0
5.0688	498.587308809	510.0
5.079	498.808835959	457.0
5.0893	499.031557109	413.0
5.0995	499.251151802	458.0
5.1098	499.471930079	496.0
5.12	499.689609171	460.0
5.1302	499.906341371	436.0
5.1405	500.124241726	436.0
5.1507	500.339083295	449.0
5.161	500.55508283	442.0
5.1712	500.768050263	461.0
5.1814	500.980091298	475.0
5.1917	501.193275204	412.0
5.2019	501.403466532	441.0
5.2122	501.614790761	469.0
5.2224	501.823148518	476.0
5.2326	502.030599929	443.0
5.2429	502.239169473	441.0
5.2531	502.444811214	449.0
5.2634	502.651561334	420.0
5.2736	502.855409191	423.0
5.2838	503.05837032	424.0
5.2941	503.262425381	421.0
5.3043	503.46361601	423.0
5.3146	503.665891028	402.0
5.3248	503.865326602	416.0
5.335	504.063894641	403.0
5.3453	504.263532934	418.0
5.3555	504.460368796	418.0
5.3658	504.658265575	387.0
5.376	504.853384369	407.0
5.3862	505.047654407	407.0
5.3965	505.242971533	404.0
5.4067	505.435546886	393.0
5.417	505.629160193	367.0
5.4272	505.820055645	366.0
5.4374	506.010120712	376.0
5.4477	506.201210202	375.0
5.4579	506.389617265	350.0
5.4682	506.579039816	393.0
5.4784	506.76580334	366.0
5.4886	506.951754451	361.0
5.4989	507.138707813	338.0
5.5091	507.323036809	357.0
5.5194	507.508359312	316.0
5.5296	507.691080343	318.0
5.5398	507.873006547	345.0
5.5501	508.055913306	332.0
5.5603	508.236252505	319.0
5.5706	508.417563706	292.0
5.5808	508.596329743	273.0
5.591	508.774318158	297.0
5.6013	508.953265904	279.0
5.6115	509.129701664	272.0
5.6218	509.307088388	291.0
5.632	509.481985038	277.0
5.6422	509.656120896	259.0
5.6525	509.831195322	289.0
5.6627	510.003812133	262.0
5.673	510.177359325	226.0
5.6832	510.34847034	226.0
5.6934	510.518837031	206.0
5.7037	510.690121974	245.0
5.7139	510.859002498	238.0
5.7242	511.028793264	231.0
5.7344	511.196200584	227.0
5.7446	511.362879692	206.0
5.7549	511.530457175	220.0
5.7651	511.695682284	200.0
5.7754	511.861797931	202.0
5.7856	512.025581724	216.0
5.7958	512.188653065	177.0
5.8061	512.352603337	203.0
5.8163	512.514252151	160.0
5.8266	512.676772229	159.0
5.8368	512.837010924	146.0
5.847	512.996552589	170.0
5.8573	513.156954161	134.0
5.8675	513.315104089	112.0
5.8778	513.474106423	135.0
5.888	513.630876755	139.0
5.8982	513.786965143	139.0
5.9085	513.943894826	120.0
5.9187	514.098621602	136.0
5.929	514.254182333	118.0
5.9392	514.407559374	115.0
5.9494	514.560269233	96.0
5.9597	514.713802176	98.0
5.9699	514.865179894	99.0
5.9802	515.017373516	96.0
5.9904	515.167430714	90.0
6.0006	515.31683517	104.0
6.0109	515.467044896	98.0
6.0211	515.615146046	83.0
6.0314	515.76404544	99.0
6.0416	515.910854652	74.0
6.0518	516.057025252	99.0
6.0621	516.203983691	93.0
6.0723	516.348879194	83.0
6.0826	516.494555664	75.0
6.0928	516.638187194	63.0
6.103	516.781193934	65.0
6.1133	516.92497146	58.0
6.1235	517.066730703	63.0
6.1338	517.209254008	54.0
6.144	517.349776636	43.0
6.1542	517.489687998	59.0
6.1645	517.630353462	55.0
6.1747	517.769044329	64.0
6.185	517.90848272	58.0
6.1952	518.045963739	54.0
6.2054	518.182846722	42.0
6.2157	518.320467485	54.0
6.2259	518.456156391	48.0
6.2362	518.59257664	45.0
6.2464	518.727081885	27.0
6.2566	518.861002038	41.0
6.2669	518.995644002	32.0
6.2771	519.128395924	31.0
6.2874	519.26186336	30.0
6.2976	519.393457241	40.0
6.3078	519.524478696	35.0
6.3181	519.656206337	41.0
6.3283	519.786084846	23.0
6.3386	519.916663382	31.0
6.3488	520.045408916	30.0
6.359	520.173594414	23.0
6.3693	520.302470812	39.0
6.3795	520.429538104	17.0
6.3898	520.557290269	20.0
6.4	520.683249109	20.0
6.4102	520.808660034	28.0
6.4205	520.934746906	22.0
6.4307	521.059063828	18.0
6.441	521.1840508	25.0
6.4512	521.307283263	20.0
6.4614	521.429979671	18.0
6.4717	521.553337395	12.0
6.4819	521.67496348	19.0
6.4922	521.797245111	17.0
6.5024	521.91781021	16.0
6.5126	522.037850856	12.0
6.5229	522.158538504	11.0
6.5331	522.277531995	7.0
6.5434	522.397166843	17.0
6.5536	522.515122312	11.0
6.5638	522.632564681	17.0
6.5741	522.750640048	14.0
6.5843	522.867057926	15.0
6.5946	522.984103281	14.0
6.6048	523.099505606	12.0
6.615	523.214405937	14.0
6.6253	523.329925564	10.0
6.6355	523.44382358	16.0
6.6458	523.55833549	6.0
6.656	523.671239934	9.0
6.6662	523.78365325	15.0
6.6765	523.896672457	12.0
6.6867	524.008105152	17.0
6.697	524.120138454	10.0
6.7072	524.230599084	8.0
6.7174	524.340579215	5.0
6.7277	524.451152124	17.0
6.7379	524.56017286	11.0
6.7482	524.669781203	8.0
6.7584	524.777850915	12.0
6.7686	524.885450529	6.0
6.7789	524.993630089	7.0
6.7891	525.100291074	11.0
6.7994	525.207526946	5.0
6.8096	525.313257491	7.0
6.8198	525.418528113	4.0
6.8301	525.524366128	11.0
6.8403	525.628718438	8.0
6.8506	525.733633192	5.0
6.8608	525.837075201	7.0
6.871	525.940067243	6.0
6.8813	526.043614396	7.0
6.8915	526.145708003	8.0
6.9018	526.248351879	4.0
6.912	526.349554888	5.0
6.9222	526.450317668	5.0
6.9325	526.551623546	5.0
6.9427	526.651507338	3.0
6.953	526.751929489	5.0
6.9632	526.850941961	5.0
6.9734	526.949523733	4.0
6.9837	527.048636847	5.0
6.9939	527.146358656	2.0
7.0042	527.244607172	5.0
7.0144	527.34147652	5.0
7.0246	527.437924492	3.0
7.0349	527.534892304	4.0
7.0451	527.630498927	8.0
7.0554	527.726620855	5.0
7.0656	527.821393469	5.0
7.0758	527.915753826	6.0
7.0861	528.010622771	3.0
7.0963	528.104159991	8.0
7.1066	528.198201362	3.0
7.1168	528.290922624	5.0
7.127	528.383240553	4.0
7.1373	528.476056062	7.0
7.1475	528.56756867	3.0
7.1578	528.659574517	8.0
7.168	528.750288829	9.0
7.1782	528.840608538	9.0
7.1885	528.931415058	3.0
7.1987	529.020946877	3.0
7.209	529.110961259	6.0
7.2192	529.199712062	5.0
7.2294	529.288076802	6.0
7.2397	529.376917816	2.0
7.2499	529.464511721	6.0
7.2602	529.552577744	5.0
7.2704	529.639407537	4.0
7.2806	529.725859625	3.0
7.2909	529.812777676	1.0
7.3011	529.898475613	3.0
7.3114	529.984635448	3.0
7.3216	530.069585812	1.0
7.3318	530.154166646	2.0
7.3421	530.239203358	6.0
7.3523	530.323046364	7.0
7.3626	530.407341272	1.0
7.3728	530.490452887	2.0
7.383	530.57320297	3.0
7.3933	530.656399064	6.0
7.4035	530.73842729	4.0
7.4138	530.820897636	4.0
7.424	530.902210301	3.0
7.4342	530.98316926	2.0
7.4445	531.064564577	5.0
7.4547	531.144817303	3.0
7.465	531.22550258	6.0
7.4752	531.305055234	4.0
7.4854	531.384261839	5.0
7.4957	531.463895355	3.0
7.5059	531.542411012	5.0
7.5162	531.621349858	2.0
7.5264	531.699180597	4.0
7.5366	531.776672775	8.0
7.5469	531.854582626	2.0
7.5571	531.931398813	2.0
7.5674	532.008629029	2.0
7.5776	532.084775123	2.0
7.5878	532.160589985	2.0
7.5981	532.236813478	3.0
7.6083	532.311966981	4.0
7.6186	532.38752555	1.0
7.6288	532.462023463	4.0
7.639	532.536197314	3.0
7.6493	532.610770951	2.0
7.6595	532.684297758	5.0
7.6698	532.758220863	5.0
7.68	532.83110627	3.0
7.6902	532.903674629	2.0
7.7005	532.976634121	2.0
7.7107	533.048569442	4.0
7.721	533.120892483	1.0
7.7312	533.192200287	2.0
7.7414	533.263197905	7.0
7.7517	533.33457819	5.0
7.7619	533.404956472	2.0
7.7722	533.475714082	0.0
7.7824	533.54547843	5.0
7.7926	533.614939306	3.0
7.8029	533.684774567	5.0
7.8131	533.753629512	1.0
7.8234	533.822855575	3.0
7.8336	533.891109875	2.0
