TL-DOS Lehrstuhlversuch
detector=R1407203
job_number=2015-10-22-008
irradiation_dose [mSv]=3.0

[BEGIN DATA]
time [sec] 	 temperature [K] 	 photoncount 
0.0	107.68708403	0.0
0.0102	109.729195975	0.0
0.0205	111.781656069	0.0
0.0307	113.804655574	1.0
0.041	115.837906377	2.0
0.0512	117.841972318	0.0
0.0614	119.836683779	3.0
0.0717	121.841503193	0.0
0.0819	123.817545842	1.0
0.0922	125.803601842	0.0
0.1024	127.761150403	1.0
0.1126	129.709561617	1.0
0.1229	131.667846162	2.0
0.1331	133.598021894	3.0
0.1434	135.537978553	1.0
0.1536	137.450089473	6.0
0.1638	139.353275137	1.0
0.1741	141.266104958	4.0
0.1843	143.151478414	2.0
0.1946	145.046405766	1.0
0.2048	146.914133722	1.0
0.215	148.773143589	0.0
0.2253	150.641573758	5.0
0.2355	152.483184866	0.0
0.2458	154.334128109	1.0
0.256	156.158503295	0.0
0.2662	157.974362752	1.0
0.2765	159.799423852	0.0
0.2867	161.598288401	0.0
0.297	163.406268473	0.0
0.3072	165.188297171	0.0
0.3174	166.962007804	0.0
0.3277	168.744706496	0.0
0.3379	170.501816698	0.0
0.3482	172.267830838	0.0
0.3584	174.008495975	0.0
0.3686	175.741036122	0.0
0.3789	177.482355701	0.0
0.3891	179.198680737	0.0
0.3994	180.923703037	0.0
0.4096	182.623964723	0.0
0.4198	184.316290012	0.0
0.4301	186.017190949	0.0
0.4403	187.693677505	0.0
0.4506	189.378659448	0.0
0.4608	191.039455507	0.0
0.471	192.692499386	1.0
0.4813	194.353919858	0.0
0.4915	195.991492644	0.0
0.5018	197.637363626	0.0
0.512	199.259610116	0.0
0.5222	200.874284364	0.0
0.5325	202.497140773	0.0
0.5427	204.096703036	0.0
0.553	205.704370882	0.0
0.5632	207.288962596	0.0
0.5734	208.86615783	0.0
0.5837	210.451345306	0.0
0.5939	212.013779327	0.0
0.6042	213.584130789	0.0
0.6144	215.131941749	0.0
0.6246	216.672527915	0.0
0.6349	218.220920809	0.0
0.6451	219.747088391	0.0
0.6554	221.280989638	0.0
0.6656	222.792873582	0.0
0.6758	224.29770043	0.0
0.6861	225.810152801	1.0
0.6963	227.300895742	1.0
0.7066	228.799192838	0.0
0.7168	230.275983686	0.0
0.727	231.745881243	0.0
0.7373	233.223227324	0.0
0.7475	234.679367883	1.0
0.7578	236.142887254	0.0
0.768	237.58539957	0.0
0.7782	239.021178598	1.0
0.7885	240.464233258	0.0
0.7987	241.886574609	0.0
0.809	243.316123498	0.0
0.8192	244.725152937	0.0
0.8294	246.127605379	1.0
0.8397	247.537164574	0.0
0.8499	248.926491247	0.0
0.8602	250.32285816	0.0
0.8704	251.69918191	1.0
0.8806	253.069081325	0.0
0.8909	254.445922535	0.0
0.9011	255.80300085	0.0
0.9114	257.166955991	0.0
0.9216	258.511333201	0.0
0.9318	259.849435193	0.0
0.9421	261.194317851	0.0
0.9523	262.519896341	0.0
0.9626	263.852192036	0.0
0.9728	265.165364232	0.0
0.983	266.472406869	2.0
0.9933	267.786072782	0.0
1.0035	269.080882605	0.0
1.0138	270.382253716	0.0
1.024	271.664945214	0.0
1.0342	272.941649429	1.0
1.0445	274.224823183	1.0
1.0547	275.489578527	1.0
1.065	276.76074286	0.0
1.0752	278.013661163	0.0
1.0854	279.260731157	0.0
1.0957	280.514120522	0.0
1.1059	281.749518995	1.0
1.1162	282.991177696	0.0
1.1264	284.215013884	1.0
1.1366	285.433137511	1.0
1.1469	286.657433827	0.0
1.1571	287.864156847	1.0
1.1674	289.076994785	0.0
1.1776	290.272423898	1.0
1.1878	291.462273047	2.0
1.1981	292.658151607	1.0
1.2083	293.836864774	1.0
1.2186	295.021550923	1.0
1.2288	296.189232332	1.0
1.239	297.351463295	0.0
1.2493	298.519583719	0.0
1.2595	299.670937184	1.0
1.2698	300.828124989	0.0
1.28	301.968702759	0.0
1.2902	303.103956597	0.0
1.3005	304.244963192	7.0
1.3107	305.369592014	1.0
1.321	306.499919753	1.0
1.3312	307.614023001	5.0
1.3414	308.722925892	2.0
1.3517	309.837448012	2.0
1.3619	310.93597251	1.0
1.3722	312.040063645	2.0
1.3824	313.128306884	3.0
1.3926	314.211470475	4.0
1.4029	315.300122862	3.0
1.4131	316.373148958	2.0
1.4234	317.451612481	5.0
1.4336	318.51459596	2.0
1.4438	319.572617698	3.0
1.4541	320.636000829	4.0
1.4643	321.684120378	6.0
1.4746	322.737551143	5.0
1.4848	323.77586118	7.0
1.495	324.809324645	4.0
1.5053	325.848025057	9.0
1.5155	326.871816178	3.0
1.5258	327.900795233	6.0
1.536	328.915004535	8.0
1.5462	329.924479762	7.0
1.5565	330.939070378	15.0
1.5667	331.93909777	3.0
1.577	332.944192677	11.0
1.5872	333.934860658	13.0
1.5974	334.920904449	5.0
1.6077	335.911944894	12.0
1.6179	336.888760149	8.0
1.6282	337.870525294	12.0
1.6384	338.838198384	17.0
1.6486	339.801354618	12.0
1.6589	340.769391527	17.0
1.6691	341.723533433	22.0
1.6794	342.682510335	19.0
1.6896	343.62772228	19.0
1.6998	344.568522212	16.0
1.7101	345.51408953	17.0
1.7203	346.44608437	21.0
1.7306	347.382801979	20.0
1.7408	348.306074136	23.0
1.751	349.225036689	28.0
1.7613	350.14865597	33.0
1.7715	351.059017811	33.0
1.7818	351.973992797	29.0
1.792	352.875834421	41.0
1.8022	353.773466474	31.0
1.8125	354.675647165	48.0
1.8227	355.564878141	40.0
1.833	356.458615184	44.0
1.8432	357.33952371	58.0
1.8534	358.216320375	53.0
1.8637	359.097560098	61.0
1.8739	359.966150688	62.0
1.8842	360.839142752	71.0
1.8944	361.699604069	62.0
1.9046	362.556048967	60.0
1.9149	363.416833793	86.0
1.9251	364.265263091	69.0
1.9354	365.117991699	80.0
1.9456	365.958480417	92.0
1.9558	366.795045943	93.0
1.9661	367.635850661	88.0
1.9763	368.464586641	104.0
1.9866	369.297522138	107.0
1.9968	370.118501851	107.0
2.007	370.935649435	106.0
2.0173	371.756937813	142.0
2.0275	372.566437587	142.0
2.0378	373.380039401	161.0
2.048	374.181962942	143.0
2.0582	374.980143304	147.0
2.0685	375.782368346	183.0
2.0787	376.573078415	177.0
2.089	377.367795309	217.0
2.0992	378.151105001	198.0
2.1094	378.930758398	207.0
2.1197	379.714362593	244.0
2.1299	380.486719094	224.0
2.1402	381.262989416	228.0
2.1504	382.028117314	216.0
2.1606	382.789673785	291.0
2.1709	383.55508935	301.0
2.1811	384.309518297	294.0
2.1914	385.067770219	317.0
2.2016	385.81513835	303.0
2.2118	386.559017953	364.0
2.2221	387.306667073	342.0
2.2323	388.043584591	325.0
2.2426	388.784236348	380.0
2.2528	389.514256943	364.0
2.263	390.240869983	403.0
2.2733	390.971165044	399.0
2.2835	391.690977601	428.0
2.2938	392.414437719	476.0
2.304	393.127513439	489.0
2.3142	393.8372607	465.0
2.3245	394.550604517	521.0
2.3347	395.253709143	526.0
2.345	395.960376666	520.0
2.3552	396.656900828	548.0
2.3654	397.350173789	556.0
2.3757	398.046959825	556.0
2.3859	398.733744338	559.0
2.3962	399.424009046	594.0
2.4064	400.104365837	570.0
2.4166	400.781546892	572.0
2.4269	401.462159477	612.0
2.4371	402.133002691	586.0
2.4474	402.807245319	601.0
2.4576	403.471810007	590.0
2.4678	404.133272673	589.0
2.4781	404.798087219	611.0
2.4883	405.453359154	610.0
2.4986	406.111951598	587.0
2.5088	406.761090742	551.0
2.519	407.407199867	580.0
2.5293	408.056583069	579.0
2.5395	408.696645159	547.0
2.5498	409.339950684	554.0
2.56	409.974022334	513.0
2.5702	410.605134295	526.0
2.5805	411.239444339	532.0
2.5907	411.864649626	462.0
2.601	412.493023064	440.0
2.6112	413.112376959	425.0
2.6214	413.728839865	433.0
2.6317	414.34842662	402.0
2.6419	414.959119954	430.0
2.6522	415.572907901	421.0
2.6624	416.177885662	378.0
2.6726	416.780039538	391.0
2.6829	417.385244754	336.0
2.6931	417.98176298	331.0
2.7034	418.581303987	346.0
2.7136	419.172239306	305.0
2.7238	419.760416287	324.0
2.7341	420.351573781	292.0
2.7443	420.934245923	293.0
2.7546	421.519870683	274.0
2.7648	422.097089506	302.0
2.775	422.671614016	304.0
2.7853	423.249049858	287.0
2.7955	423.818197304	314.0
2.8058	424.390228835	286.0
2.816	424.954049542	293.0
2.8262	425.515238476	318.0
2.8365	426.079271164	292.0
2.8467	426.635207844	279.0
2.857	427.193961664	329.0
2.8672	427.744695247	318.0
2.8774	428.292858143	347.0
2.8877	428.843798786	334.0
2.8979	429.386831341	333.0
2.9082	429.932615645	349.0
2.9184	430.470565875	339.0
2.9286	431.006005087	320.0
2.9389	431.544157571	367.0
2.9491	432.074585525	377.0
2.9594	432.607701356	367.0
2.9696	433.133164953	403.0
2.9798	433.656175817	431.0
2.9901	434.181836974	426.0
3.0003	434.699952899	439.0
3.0106	435.220694312	432.0
3.0208	435.73396111	433.0
3.031	436.244832106	455.0
3.0413	436.758291878	457.0
3.0515	437.264381555	499.0
3.0618	437.773035778	489.0
3.072	438.274388883	500.0
3.0822	438.773401797	499.0
3.0925	439.274943397	518.0
3.1027	439.769285972	517.0
3.113	440.266133567	499.0
3.1232	440.755849513	523.0
3.1334	441.243279588	575.0
3.1437	441.733179655	549.0
3.1539	442.216047797	559.0
3.1642	442.701362813	528.0
3.1744	443.179711717	550.0
3.1846	443.655827808	577.0
3.1949	444.134356559	569.0
3.2051	444.606016606	597.0
3.2154	445.080066732	631.0
3.2256	445.54731244	589.0
3.2358	446.012377162	582.0
3.2461	446.479798542	588.0
3.2563	446.940510651	574.0
3.2666	447.403557362	592.0
3.2768	447.859957596	602.0
3.287	448.314227468	594.0
3.2973	448.770799295	540.0
3.3075	449.220817585	649.0
3.3178	449.673116287	625.0
3.328	450.118922786	582.0
3.3382	450.562648372	595.0
3.3485	451.008622482	541.0
3.3587	451.448195172	544.0
3.369	451.889995341	588.0
3.3792	452.325454002	592.0
3.3894	452.758880051	574.0
3.3997	453.194502433	536.0
3.4099	453.62387198	513.0
3.4202	454.055417305	543.0
3.4304	454.480768317	557.0
3.4406	454.904133896	501.0
3.4509	455.329644828	526.0
3.4611	455.749048064	521.0
3.4714	456.170576573	518.0
3.4816	456.58605455	492.0
3.4918	456.999593179	534.0
3.5021	457.415227363	514.0
3.5123	457.82489562	464.0
3.5226	458.23663982	515.0
3.5328	458.642473929	515.0
3.543	459.046413705	471.0
3.5533	459.452400396	486.0
3.5635	459.852559638	461.0
3.5738	460.254746637	441.0
3.584	460.651160727	490.0
3.5942	461.045724454	479.0
3.6045	461.442287585	460.0
3.6147	461.83315853	477.0
3.625	462.226010165	451.0
3.6352	462.613222888	439.0
3.6454	462.9986282	450.0
3.6557	463.385986504	470.0
3.6659	463.767784748	484.0
3.6762	464.151517707	473.0
3.6864	464.529742642	465.0
3.6966	464.906202117	458.0
3.7069	465.284569254	483.0
3.7171	465.657505387	434.0
3.7274	466.032331328	451.0
3.7376	466.401777094	476.0
3.7478	466.76949838	460.0
3.7581	467.139083048	475.0
3.7683	467.503362773	475.0
3.7786	467.869488441	496.0
3.7888	468.230358817	495.0
3.799	468.589544739	470.0
3.8093	468.950550792	438.0
3.8195	469.306375038	476.0
3.8298	469.66400238	476.0
3.84	470.016496412	480.0
3.8502	470.36734509	521.0
3.8605	470.71997165	443.0
3.8707	471.067536682	481.0
3.881	471.416862955	501.0
3.8912	471.761175072	492.0
3.9014	472.103880026	478.0
3.9117	472.448321594	435.0
3.9219	472.787819119	451.0
3.9322	473.129037006	465.0
3.9424	473.465357121	482.0
3.9526	473.800107378	475.0
3.9629	474.136553941	484.0
3.9731	474.468171219	451.0
3.9834	474.801468926	446.0
3.9936	475.129982547	483.0
4.0038	475.456962748	461.0
4.0141	475.78559988	462.0
4.0243	476.109519823	492.0
4.0346	476.435081191	452.0
4.0448	476.755969517	414.0
4.055	477.075360017	470.0
4.0653	477.396368988	471.0
4.0755	477.712770263	480.0
4.0858	478.030774862	447.0
4.096	478.344214888	444.0
4.1062	478.656191855	437.0
4.1165	478.969749726	458.0
4.1267	479.278806853	408.0
4.137	479.589430087	409.0
4.1472	479.8955947	429.0
4.1574	480.200330213	436.0
4.1677	480.506609936	469.0
4.1779	480.808493382	432.0
4.1882	481.111906585	432.0
4.1984	481.410964658	426.0
4.2086	481.708626802	461.0
4.2189	482.007797312	409.0
4.2291	482.30267359	445.0
4.2394	482.599044118	433.0
4.2496	482.891160603	413.0
4.2598	483.181913562	405.0
4.2701	483.474139876	414.0
4.2803	483.762171633	408.0
4.2906	484.051662955	365.0
4.3008	484.336998979	410.0
4.311	484.621003125	426.0
4.3213	484.906446427	387.0
4.3315	485.187792535	444.0
4.3418	485.470564329	419.0
4.352	485.749277275	388.0
4.3622	486.026689259	414.0
4.3725	486.305506993	394.0
4.3827	486.580322635	424.0
4.393	486.856530872	421.0
4.4032	487.128774472	392.0
4.4134	487.399747307	394.0
4.4237	487.672093263	379.0
4.4339	487.940530022	386.0
4.4442	488.21032705	369.0
4.4544	488.476251468	376.0
4.4646	488.740934616	411.0
4.4749	489.006959014	404.0
4.4851	489.269164952	361.0
4.4954	489.532699587	381.0
4.5056	489.792451499	354.0
4.5158	490.050990955	376.0
4.5261	490.310840527	401.0
4.5363	490.566960272	396.0
4.5466	490.824377872	381.0
4.5568	491.078100552	389.0
4.567	491.330638919	400.0
4.5773	491.584456992	367.0
4.5875	491.834631813	349.0
4.5978	492.086074364	392.0
4.608	492.333907761	377.0
4.6182	492.580584333	381.0
4.6285	492.828510907	394.0
4.6387	493.072878795	408.0
4.649	493.318484987	390.0
4.6592	493.560565798	400.0
4.6694	493.801516637	404.0
4.6797	494.043688463	400.0
4.6899	494.282384206	355.0
4.7002	494.522289509	372.0
4.7104	494.758751261	380.0
4.7206	494.994109269	415.0
4.7309	495.230659924	409.0
4.7411	495.46381518	411.0
4.7514	495.698151921	393.0
4.7616	495.929125041	402.0
4.7718	496.159020036	355.0
4.7821	496.390079995	374.0
4.7923	496.617823367	354.0
4.8026	496.846720801	390.0
4.8128	497.072332688	392.0
4.823	497.296891475	379.0
4.8333	497.522588186	411.0
4.8435	497.745045292	363.0
4.8538	497.968629673	388.0
4.864	498.189004769	396.0
4.8742	498.408351209	441.0
4.8845	498.628809161	389.0
4.8947	498.846102704	396.0
4.905	499.064497355	396.0
4.9152	499.279757215	402.0
4.9254	499.494012295	394.0
4.9357	499.709353086	374.0
4.9459	499.92160292	369.0
4.9562	500.134928304	359.0
4.9664	500.345191659	365.0
4.9766	500.554473557	378.0
4.9869	500.764815965	380.0
4.9971	500.972139162	357.0
5.0074	501.180512943	372.0
5.0176	501.38589577	340.0
5.0278	501.590319921	325.0
5.0381	501.795779966	371.0
5.0483	501.99829088	371.0
5.0586	502.201827993	327.0
5.0688	502.402443576	310.0
5.079	502.602122736	334.0
5.0893	502.802813745	338.0
5.0995	503.000624076	344.0
5.1098	503.199436787	323.0
5.12	503.395395781	334.0
5.1302	503.590440088	322.0
5.1405	503.786472757	327.0
5.1507	503.979691614	288.0
5.161	504.173889584	312.0
5.1712	504.365300075	304.0
5.1814	504.555817111	285.0
5.1917	504.747299568	299.0
5.2019	504.936033525	273.0
5.2122	505.125723868	261.0
5.2224	505.312691435	300.0
5.2326	505.498786284	247.0
5.2429	505.685824145	243.0
5.2531	505.870177304	273.0
5.2634	506.055464649	264.0
5.2736	506.238092418	263.0
5.2838	506.419867726	241.0
5.2941	506.602564158	220.0
5.3043	506.782638203	252.0
5.3146	506.963624751	228.0
5.3248	507.142013455	221.0
5.335	507.319569486	192.0
5.3453	507.498025259	197.0
5.3555	507.673919515	193.0
5.3658	507.850705094	178.0
5.376	508.024953128	207.0
5.3862	508.198387817	159.0
5.3965	508.372701364	185.0
5.4067	508.54451285	172.0
5.417	508.71719497	169.0
5.4272	508.887398446	196.0
5.4374	509.056807455	158.0
5.4477	509.227074923	133.0
5.4579	509.394898407	165.0
5.4682	509.563572315	132.0
5.4784	509.729825113	139.0
5.4886	509.895301884	144.0
5.4989	510.061617189	123.0
5.5091	510.225545238	132.0
5.5194	510.390303971	127.0
5.5296	510.552697792	143.0
5.5398	510.714333599	89.0
5.5501	510.876788476	122.0
5.5603	511.036911509	108.0
5.5706	511.197845945	104.0
5.5808	511.356470361	97.0
5.591	511.514354359	94.0
5.6013	511.673038414	90.0
5.6115	511.82944475	84.0
5.6218	511.986643657	69.0
5.632	512.141586162	87.0
5.6422	512.295805435	63.0
5.6525	512.450806195	75.0
5.6627	512.603582106	66.0
5.673	512.757132189	64.0
5.6832	512.908478247	56.0
5.6934	513.059117859	45.0
5.7037	513.210520818	53.0
5.7139	513.359750571	58.0
5.7242	513.509736527	52.0
5.7344	513.657569615	49.0
5.7446	513.804712655	50.0
5.7549	513.952601325	47.0
5.7651	514.098367231	37.0
5.7754	514.244871787	45.0
5.7856	514.389273448	29.0
5.7958	514.533001077	42.0
5.8061	514.677457028	36.0
5.8163	514.819839489	37.0
5.8266	514.962943455	29.0
5.8368	515.103993336	37.0
5.847	515.244384831	28.0
5.8573	515.385487743	28.0
5.8675	515.524565293	34.0
5.8778	515.664347601	28.0
5.888	515.802123502	25.0
5.8982	515.939256301	17.0
5.9085	516.077084002	29.0
5.9187	516.212933353	19.0
5.929	516.349471104	24.0
5.9392	516.48404902	19.0
5.9494	516.61799876	20.0
5.9597	516.752627273	19.0
5.9699	516.885323357	21.0
5.9802	517.018691862	20.0
5.9904	517.150146022	15.0
6.0006	517.280986587	13.0
6.0109	517.412490171	16.0
6.0211	517.542106179	11.0
6.0314	517.672379001	14.0
6.0416	517.800781913	12.0
6.0518	517.928585472	11.0
6.0621	518.05703666	10.0
6.0723	518.183644087	9.0
6.0826	518.31089308	9.0
6.0928	518.436315568	14.0
6.103	518.561152615	9.0
6.1133	518.686622258	11.0
6.1235	518.810290936	14.0
6.1338	518.934586289	13.0
6.144	519.057097533	8.0
6.1542	519.179036924	5.0
6.1645	519.301594229	9.0
6.1747	519.422392371	15.0
6.185	519.543802643	9.0
6.1952	519.663470216	8.0
6.2054	519.782579212	4.0
6.2157	519.902291777	8.0
6.2259	520.020286013	10.0
6.2362	520.13887817	7.0
6.2464	520.255768079	9.0
6.2566	520.372112376	7.0
6.2669	520.489046233	2.0
6.2771	520.604301645	13.0
6.2874	520.7201411	5.0
6.2976	520.83431782	7.0
6.3078	520.947961591	5.0
6.3181	521.062181237	5.0
6.3283	521.174761399	4.0
6.3386	521.287912046	12.0
6.3488	521.399438552	10.0
6.359	521.51044448	3.0
6.3693	521.622012918	2.0
6.3795	521.731979924	7.0
6.3898	521.842504175	9.0
6.4	521.951441984	6.0
6.4102	522.059871298	5.0
6.4205	522.168850064	7.0
6.4307	522.276264572	3.0
6.441	522.384223389	4.0
6.4512	522.490632587	2.0
6.4614	522.596545094	3.0
6.4717	522.7029943	5.0
6.4819	522.807915555	6.0
6.4922	522.913368486	5.0
6.5024	523.017307767	9.0
6.5126	523.120761886	4.0
6.5229	523.224740246	6.0
6.5331	523.327226121	8.0
6.5434	523.430231331	3.0
6.5536	523.531758026	3.0
6.5638	523.632810819	5.0
6.5741	523.734375685	6.0
6.5843	523.834482709	3.0
6.5946	523.935097014	5.0
6.6048	524.034267121	3.0
6.615	524.132974327	1.0
6.6253	524.23218172	8.0
6.6355	524.32996511	7.0
6.6458	524.428244006	5.0
6.656	524.525112226	5.0
6.6662	524.62152829	7.0
6.6765	524.71843293	3.0
6.6867	524.813946621	4.0
6.697	524.909944316	2.0
6.7072	525.004564079	2.0
6.7174	525.098742182	2.0
6.7277	525.19339752	2.0
6.7379	525.286694194	0.0
6.7482	525.380463639	2.0
6.7584	525.472887135	2.0
6.7686	525.564879222	4.0
6.7789	525.657337468	8.0
6.7891	525.748468587	4.0
6.7994	525.840061501	1.0
6.8096	525.93033971	4.0
6.8198	526.020196523	2.0
6.8301	526.110508673	5.0
6.8403	526.199524502	4.0
6.8506	526.288991408	5.0
6.8608	526.377174124	4.0
6.871	526.464945225	0.0
6.8813	526.553161095	5.0
6.8915	526.640110733	7.0
6.9018	526.727500977	3.0
6.912	526.81363684	3.0
6.9222	526.899370642	2.0
6.9325	526.985538889	5.0
6.9427	527.070470295	5.0
6.953	527.155832081	3.0
6.9632	527.239968601	4.0
6.9734	527.323712393	2.0
6.9837	527.407880546	4.0
6.9939	527.490840566	4.0
7.0042	527.574220977	3.0
7.0144	527.656404562	5.0
7.0246	527.738204534	3.0
7.0349	527.820419018	2.0
7.0451	527.901453412	1.0
7.0554	527.982898438	1.0
7.0656	528.063174419	3.0
7.0758	528.143075691	3.0
7.0861	528.223381854	3.0
7.0963	528.302535318	5.0
7.1066	528.382089882	1.0
7.1168	528.460502537	1.0
7.127	528.538549181	4.0
7.1373	528.616991317	1.0
7.1475	528.69430751	4.0
7.1578	528.772015494	6.0
7.168	528.848608073	5.0
7.1782	528.924843137	5.0
7.1885	529.001464513	0.0
7.1987	529.076986081	5.0
7.209	529.152890346	4.0
7.2192	529.227705097	3.0
7.2294	529.30217063	4.0
7.2397	529.377013509	1.0
7.2499	529.450782109	3.0
7.2602	529.524924521	8.0
7.2704	529.598002709	5.0
7.2806	529.670739786	3.0
7.2909	529.743845449	2.0
7.3011	529.815901769	4.0
7.3114	529.888323225	1.0
7.3216	529.959705158	2.0
7.3318	530.030753899	4.0
7.3421	530.10216267	1.0
7.3523	530.172546454	3.0
7.3626	530.243286899	5.0
7.3728	530.313011951	7.0
7.383	530.382411543	3.0
7.3933	530.452162809	2.0
7.4035	530.52091288	4.0
7.4138	530.590011334	3.0
7.424	530.658117962	1.0
7.4342	530.725906686	1.0
7.4445	530.79403892	2.0
7.4547	530.861193199	1.0
7.465	530.928687773	6.0
7.4752	530.995213545	0.0
7.4854	531.06142879	7.0
7.4957	531.127979573	3.0
7.5059	531.1935751	0.0
7.5162	531.259503024	7.0
7.5264	531.324484633	5.0
7.5366	531.389162923	1.0
7.5469	531.454168962	2.0
7.5571	531.518241919	1.0
7.5674	531.582639557	4.0
7.5776	531.646112844	2.0
7.5878	531.709289854	3.0
7.5981	531.772787006	3.0
7.6083	531.835372733	3.0
7.6186	531.898275605	3.0
7.6288	531.960275582	6.0
7.639	532.021986159	2.0
7.6493	532.084009447	4.0
7.6595	532.145142465	3.0
7.6698	532.206585267	4.0
7.68	532.267146132	1.0
7.6902	532.327424313	1.0
7.7005	532.388007947	1.0
7.7107	532.447721976	3.0
7.721	532.507738599	6.0
7.7312	532.566893755	4.0
7.7414	532.625772789	4.0
7.7517	532.684950186	5.0
7.7619	532.743278163	1.0
7.7722	532.801901709	2.0
7.7824	532.859683786	2.0
7.7926	532.917196149	1.0
7.8029	532.97499995	0.0
7.8131	533.031974047	5.0
7.8234	533.089236853	3.0
7.8336	533.14567772	2.0
7.8438	533.201855136	3.0
7.8541	533.258317223	1.0
7.8643	533.313968866	0.0
