TL-DOS Lehrstuhlversuch
detector=R1408303
job_number=2015-10-14-001
irradiation_dose [mSv]=5.0

[BEGIN DATA]
time [sec] 	 temperature [K] 	 photoncount 
0.0	115.024064294	0.0
0.0102	116.958983601	0.0
0.0205	118.9040741	1.0
0.0307	120.821606215	2.0
0.041	122.749218124	1.0
0.0512	124.649519289	0.0
0.0614	126.541304781	0.0
0.0717	128.443034724	1.0
0.0819	130.317820624	2.0
0.0922	132.202461616	0.0
0.1024	134.060400685	2.0
0.1126	135.910013912	0.0
0.1229	137.769349908	1.0
0.1331	139.602342505	5.0
0.1434	141.444970501	0.0
0.1536	143.261491821	2.0
0.1638	145.069872902	2.0
0.1741	146.887760008	2.0
0.1843	148.679890971	1.0
0.1946	150.481442538	1.0
0.2048	152.257469406	1.0
0.215	154.025537501	1.0
0.2253	155.80289971	0.0
0.2355	157.555079939	4.0
0.2458	159.316470764	0.0
0.256	161.052905896	1.0
0.2662	162.781559674	0.0
0.2765	164.519300378	0.0
0.2867	166.232420467	0.0
0.297	167.954545827	0.0
0.3072	169.652271814	0.0
0.3174	171.342389911	0.0
0.3277	173.041392365	0.0
0.3379	174.716323055	0.0
0.3482	176.400058267	0.0
0.3584	178.059938025	0.0
0.3686	179.712379489	0.0
0.3789	181.373507259	0.0
0.3891	183.011099879	0.0
0.3994	184.657300749	0.0
0.4096	186.280177957	0.0
0.4198	187.895782689	0.0
0.4301	189.519880088	0.0
0.4403	191.120966991	0.0
0.4506	192.730470246	0.0
0.4608	194.317169776	1.0
0.471	195.896758951	0.0
0.4813	197.484651472	0.0
0.4915	199.050046453	0.0
0.5018	200.623670167	1.0
0.512	202.174998504	0.0
0.5222	203.719374992	0.0
0.5325	205.271869725	1.0
0.5427	206.802368441	0.0
0.553	208.340912451	1.0
0.5632	209.8576581	0.0
0.5734	211.367606873	0.0
0.5837	212.885492916	0.0
0.5939	214.381873285	0.0
0.6042	215.886119599	0.0
0.6144	217.369053488	0.0
0.6246	218.845342019	0.0
0.6349	220.329390881	0.0
0.6451	221.792413478	1.0
0.6554	223.263126672	0.0
0.6656	224.713002543	0.0
0.6758	226.156381196	0.0
0.6861	227.607347185	0.0
0.6963	229.037755633	0.0
0.7066	230.475683236	0.0
0.7168	231.893238029	0.0
0.727	233.304440442	0.0
0.7373	234.723061051	1.0
0.7475	236.121582395	0.0
0.7578	237.527455274	0.0
0.768	238.9134095	0.0
0.7782	240.293152955	0.0
0.7885	241.680149238	0.0
0.7987	243.047494314	0.0
0.809	244.422027043	3.0
0.8192	245.777085152	0.0
0.8294	247.126070942	0.0
0.8397	248.482147877	0.0
0.8499	249.819011677	2.0
0.8602	251.1629029	1.0
0.8704	252.487753637	0.0
0.8806	253.806667422	0.0
0.8909	255.132514274	0.0
0.9011	256.439576295	0.0
0.9114	257.753509082	1.0
0.9216	259.048825839	0.0
0.9318	260.338337993	1.0
0.9421	261.634628659	0.0
0.9523	262.912553252	0.0
0.9626	264.197195446	0.0
0.9728	265.463636604	1.0
0.983	266.724402557	1.0
0.9933	267.991795913	0.0
1.0035	269.241232619	0.0
1.0138	270.497237174	0.0
1.024	271.735446437	0.0
1.0342	272.968107008	0.0
1.0445	274.207247242	1.0
1.0547	275.428831121	3.0
1.065	276.656836437	0.0
1.0752	277.867443158	0.0
1.0854	279.072624881	1.0
1.0957	280.28414182	1.0
1.1059	281.478493776	4.0
1.1162	282.67912402	0.0
1.1264	283.862743525	1.0
1.1366	285.041058966	0.0
1.1469	286.225568398	2.0
1.1571	287.393295492	1.0
1.1674	288.567160919	2.0
1.1776	289.724394814	1.0
1.1878	290.876442885	2.0
1.1981	292.034546869	1.0
1.2083	293.176242632	1.0
1.2186	294.32393989	3.0
1.2288	295.455376371	1.0
1.239	296.581742633	2.0
1.2493	297.714029807	4.0
1.2595	298.830274538	5.0
1.2698	299.952386975	2.0
1.28	301.058601127	3.0
1.2902	302.159858087	4.0
1.3005	303.266903967	3.0
1.3107	304.358265027	3.0
1.321	305.45536299	3.0
1.3312	306.536917076	3.0
1.3414	307.613624477	5.0
1.3517	308.69599175	4.0
1.3619	309.763023854	4.0
1.3722	310.835664972	7.0
1.3824	311.893108722	5.0
1.3926	312.945813831	8.0
1.4029	314.004052641	5.0
1.4131	315.047298137	8.0
1.4234	316.09602761	7.0
1.4336	317.129898499	6.0
1.4438	318.159136382	8.0
1.4541	319.193784607	7.0
1.4643	320.213773755	7.0
1.4746	321.239124627	12.0
1.4848	322.249948149	7.0
1.495	323.256241945	9.0
1.5053	324.267825474	9.0
1.5155	325.26507671	12.0
1.5258	326.267570146	9.0
1.536	327.25586008	13.0
1.5462	328.239721265	13.0
1.5565	329.228754263	16.0
1.5667	330.203774469	21.0
1.577	331.183920013	11.0
1.5872	332.150178684	15.0
1.5974	333.112107333	21.0
1.6077	334.079092504	21.0
1.6179	335.032377259	14.0
1.6282	335.990673098	26.0
1.6384	336.935391634	25.0
1.6486	337.875876674	32.0
1.6589	338.821305514	20.0
1.6691	339.753339353	28.0
1.6794	340.690272567	32.0
1.6896	341.613931147	39.0
1.6998	342.533450606	37.0
1.7101	343.457803656	41.0
1.7203	344.36906031	36.0
1.7306	345.28510712	46.0
1.7408	346.188175219	39.0
1.751	347.087196468	46.0
1.7613	347.990943556	40.0
1.7715	348.881886197	46.0
1.7818	349.777512211	53.0
1.792	350.660448838	64.0
1.8022	351.539428829	60.0
1.8125	352.423029309	65.0
1.8227	353.294110783	85.0
1.833	354.169771226	54.0
1.8432	355.033025159	71.0
1.8534	355.892410658	89.0
1.8637	356.756313645	80.0
1.8739	357.607976703	89.0
1.8842	358.464116655	110.0
1.8944	359.308126666	117.0
1.9046	360.148354479	104.0
1.9149	360.992999075	124.0
1.9251	361.825676599	110.0
1.9354	362.662731216	141.0
1.9456	363.487926296	136.0
1.9558	364.309423493	145.0
1.9661	365.135239012	132.0
1.9763	365.949354233	175.0
1.9866	366.767748971	177.0
1.9968	367.574548549	158.0
2.007	368.377732678	193.0
2.0173	369.185138864	209.0
2.0275	369.981105578	231.0
2.0378	370.781256409	217.0
2.048	371.570070563	204.0
2.0582	372.355349865	240.0
2.0685	373.144757104	228.0
2.0787	373.922979884	244.0
2.089	374.705293507	265.0
2.0992	375.476523174	293.0
2.1094	376.244296788	329.0
2.1197	377.016106318	307.0
2.1299	377.776980716	338.0
2.1402	378.541854764	385.0
2.1504	379.295891942	412.0
2.1606	380.046550111	409.0
2.1709	380.801154226	451.0
2.1811	381.545066978	445.0
2.1914	382.292890219	482.0
2.2016	383.030118168	492.0
2.2118	383.764042435	500.0
2.2221	384.501824683	559.0
2.2323	385.229153904	583.0
2.2426	385.960306439	607.0
2.2528	386.681099877	610.0
2.263	387.398663278	578.0
2.2733	388.119998658	662.0
2.2835	388.831114032	718.0
2.2938	389.54596749	758.0
2.304	390.250692779	737.0
2.3142	390.952260036	759.0
2.3245	391.657515187	795.0
2.3347	392.352778158	856.0
2.345	393.051695884	907.0
2.3552	393.74071122	844.0
2.3654	394.426638924	878.0
2.3757	395.11617231	948.0
2.3859	395.795936266	942.0
2.3962	396.479273503	957.0
2.4064	397.152929097	930.0
2.4166	397.823565891	1012.0
2.4269	398.497727987	927.0
2.4371	399.162338436	969.0
2.4474	399.830442508	1041.0
2.4576	400.489080766	1006.0
2.4678	401.144767518	997.0
2.4781	401.803900985	987.0
2.4883	402.453695734	1034.0
2.4986	403.106906225	1068.0
2.5088	403.750861916	1057.0
2.519	404.391931898	1082.0
2.5293	405.036371759	1113.0
2.5395	405.671681084	1037.0
2.5498	406.310330006	1037.0
2.56	406.939930439	1015.0
2.5702	407.566709492	1000.0
2.5805	408.196783302	979.0
2.5907	408.817930116	1035.0
2.601	409.44234208	995.0
2.6112	410.057907267	908.0
2.6214	410.670713968	937.0
2.6317	411.28674198	877.0
2.6419	411.894041998	864.0
2.6522	412.504534379	830.0
2.6624	413.106377198	859.0
2.6726	413.705523024	825.0
2.6829	414.307818349	764.0
2.6931	414.901580249	770.0
2.7034	415.498463347	755.0
2.7136	416.0868897	611.0
2.7238	416.672679183	694.0
2.7341	417.261547956	632.0
2.7443	417.842073533	575.0
2.7546	418.425650729	590.0
2.7648	419.000959702	535.0
2.775	419.573690586	600.0
2.7853	420.149432115	552.0
2.7955	420.717016438	505.0
2.8058	421.287584352	520.0
2.816	421.85006836	535.0
2.8262	422.410031751	506.0
2.8365	422.972938674	487.0
2.8467	423.527870232	526.0
2.857	424.085718871	496.0
2.8672	424.635663813	499.0
2.8774	425.183144328	552.0
2.8877	425.733502757	547.0
2.8979	426.27606361	516.0
2.9082	426.821476516	521.0
2.9184	427.359161916	529.0
2.9286	427.894437828	535.0
2.9389	428.432527497	540.0
2.9491	428.962993417	601.0
2.9594	429.496247811	554.0
2.9696	430.021946963	584.0
2.9798	430.545290339	612.0
2.9901	431.071384748	602.0
3.0003	431.590025359	620.0
3.0106	432.111392282	603.0
3.0208	432.625372387	700.0
3.031	433.137049232	704.0
3.0413	433.651415783	686.0
3.0515	434.158494698	714.0
3.0618	434.66823915	715.0
3.072	435.170761452	796.0
3.0822	435.67103184	766.0
3.0925	436.173931974	749.0
3.1027	436.66970693	776.0
3.113	437.168088001	790.0
3.1232	437.659407922	812.0
3.1334	438.148526129	841.0
3.1437	438.640215458	855.0
3.1539	439.124938447	815.0
3.1642	439.612209454	871.0
3.1744	440.092576721	886.0
3.1846	440.570791354	913.0
3.1949	441.051519794	914.0
3.2051	441.525437189	892.0
3.2154	442.001845801	955.0
3.2256	442.471504573	956.0
3.2358	442.939058699	890.0
3.2461	443.409070592	895.0
3.2563	443.872423275	984.0
3.2666	444.33821164	969.0
3.2768	444.797400635	953.0
3.287	445.2545319	1009.0
3.2973	445.714066144	1026.0
3.3075	446.167089627	988.0
3.3178	446.622494495	957.0
3.328	447.071447107	994.0
3.3382	447.518387862	1025.0
3.3485	447.967678027	964.0
3.3587	448.410602571	1001.0
3.369	448.855855414	1002.0
3.3792	449.294799836	1022.0
3.3894	449.73177725	927.0
3.3997	450.171051702	959.0
3.4099	450.604102435	995.0
3.4202	451.039429565	974.0
3.4304	451.468588904	953.0
3.4406	451.895825083	986.0
3.4509	452.325307093	1006.0
3.4611	452.748704127	959.0
3.4714	453.174326811	950.0
3.4816	453.593919197	895.0
3.4918	454.011631297	915.0
3.5021	454.431539162	887.0
3.5123	454.845497699	948.0
3.5226	455.261632271	909.0
3.5328	455.671870975	900.0
3.543	456.080271308	861.0
3.5533	456.490818458	826.0
3.5635	456.895548904	845.0
3.5738	457.302406877	872.0
3.584	457.703500414	839.0
3.5942	458.102796561	912.0
3.6045	458.504191668	840.0
3.6147	458.899899739	810.0
3.625	459.297687908	841.0
3.6352	459.689840145	892.0
3.6454	460.080235059	830.0
3.6557	460.472682143	891.0
3.6659	460.859568968	830.0
3.6762	461.248489521	817.0
3.6864	461.63189978	840.0
3.6966	462.013591892	788.0
3.7069	462.397290424	817.0
3.7171	462.775552649	792.0
3.7274	463.155803266	813.0
3.7376	463.530666425	812.0
3.7478	463.903849739	842.0
3.7581	464.278994747	799.0
3.7683	464.648824634	840.0
3.7786	465.020598587	807.0
3.7888	465.387105181	806.0
3.799	465.751969378	833.0
3.8093	466.118751538	823.0
3.8195	466.480337063	778.0
3.8298	466.843823317	773.0
3.84	467.202159634	814.0
3.8502	467.558890166	852.0
3.8605	467.917495905	749.0
3.8707	468.271020855	819.0
3.881	468.626404162	823.0
3.8912	468.976752336	810.0
3.9014	469.325530521	822.0
3.9117	469.676142111	802.0
3.9219	470.021786174	838.0
3.9322	470.369247167	830.0
3.9424	470.711785272	842.0
3.9526	471.052788387	789.0
3.9629	471.395584035	804.0
3.9731	471.733522895	840.0
3.9834	472.07323818	802.0
3.9936	472.40814032	858.0
4.0038	472.741541689	813.0
4.0141	473.076695632	851.0
4.0243	473.407101054	807.0
4.0346	473.739243302	794.0
4.0448	474.066679701	826.0
4.055	474.392648784	806.0
4.0653	474.720331372	794.0
4.0755	475.043371296	858.0
4.0858	475.368109327	742.0
4.096	475.688246412	766.0
4.1062	476.006948892	727.0
4.1165	476.327326679	768.0
4.1267	476.643165298	799.0
4.137	476.960664169	811.0
4.1472	477.27366466	773.0
4.1574	477.585262527	810.0
4.1677	477.898498354	778.0
4.1779	478.207296201	794.0
4.1882	478.517717289	770.0
4.1984	478.823740278	770.0
4.2086	479.128391909	753.0
4.2189	479.434644987	774.0
4.2291	479.736559017	760.0
4.2394	480.040060103	779.0
4.2496	480.339261133	769.0
4.2598	480.637121377	731.0
4.2701	480.936547367	809.0
4.2803	481.231731037	760.0
4.2906	481.528466384	734.0
4.3008	481.820997532	756.0
4.311	482.112217784	693.0
4.3213	482.404968877	686.0
4.3315	482.693572223	708.0
4.3418	482.983692654	744.0
4.352	483.269702609	745.0
4.3622	483.554430888	758.0
4.3725	483.840655885	699.0
4.3827	484.122825596	684.0
4.393	484.406478573	701.0
4.4032	484.686112706	716.0
4.4134	484.964493736	706.0
4.4237	485.244338116	738.0
4.4339	485.520217613	680.0
4.4442	485.797547312	710.0
4.4544	486.070947754	718.0
4.4646	486.343123029	650.0
4.4749	486.616729033	706.0
4.4851	486.886458539	667.0
4.4954	487.157605918	665.0
4.5056	487.424911634	673.0
4.5158	487.691019494	678.0
4.5261	487.958526189	669.0
4.5363	488.222242802	634.0
4.5466	488.487345681	712.0
4.5568	488.748692536	681.0
4.567	489.008868237	655.0
4.5773	489.27041159	652.0
4.5875	489.528249352	681.0
4.5978	489.787442476	640.0
4.608	490.042963307	698.0
4.6182	490.297339091	651.0
4.6285	490.55305204	679.0
4.6387	490.805142003	624.0
4.649	491.058557114	694.0
4.6592	491.308381796	642.0
4.6694	491.557086957	655.0
4.6797	491.807099474	707.0
4.6899	492.05356977	687.0
4.7002	492.301335674	667.0
4.7104	492.545591187	665.0
4.7206	492.788752137	657.0
4.7309	493.033191298	668.0
4.7411	493.274167202	660.0
4.7514	493.516409833	652.0
4.7616	493.755220327	661.0
4.7718	493.992960658	690.0
4.7821	494.231950706	650.0
4.7923	494.467554702	657.0
4.8026	494.704397185	630.0
4.8128	494.937884042	674.0
4.823	495.170324592	680.0
4.8333	495.403987001	676.0
4.8435	495.63433884	672.0
4.8538	495.865901558	650.0
4.864	496.094183454	652.0
4.8742	496.321442369	666.0
4.8845	496.549895903	630.0
4.8947	496.775112668	693.0
4.905	497.001513319	647.0
4.9152	497.224706285	636.0
4.9254	497.446899074	704.0
4.9357	497.670259852	653.0
4.9459	497.890456016	666.0
4.9562	498.111809673	654.0
4.9664	498.330027153	697.0
4.9766	498.547266752	684.0
4.9869	498.765648303	655.0
4.9971	498.980935786	648.0
5.0074	499.19735496	606.0
5.0176	499.410707869	675.0
5.0278	499.623104696	640.0
5.0381	499.836618019	664.0
5.0483	500.047106247	631.0
5.0586	500.258700938	676.0
5.0688	500.467297719	681.0
5.079	500.67495973	650.0
5.0893	500.883713348	612.0
5.0995	501.089509309	653.0
5.1098	501.296387066	654.0
5.12	501.500333743	621.0
5.1302	501.703366489	633.0
5.1405	501.907466507	673.0
5.1507	502.108674801	592.0
5.161	502.310940775	600.0
5.1712	502.51034101	614.0
5.1814	502.708847688	563.0
5.1917	502.908397846	578.0
5.2019	503.105120742	616.0
5.2122	503.302877742	584.0
5.2224	503.497832886	621.0
5.2326	503.691914392	548.0
5.2429	503.887016116	572.0
5.2531	504.079353605	544.0
5.2634	504.272702145	583.0
5.2736	504.463311289	528.0
5.2838	504.65306627	523.0
5.2941	504.843818727	541.0
5.3043	505.03186857	487.0
5.3146	505.220906924	517.0
5.3248	505.407266951	483.0
5.335	505.592791856	533.0
5.3453	505.779292	487.0
5.3555	505.963149778	503.0
5.3658	506.147974032	441.0
5.376	506.330179663	425.0
5.3862	506.51156879	459.0
5.3965	506.693911416	434.0
5.4067	506.87367058	390.0
5.417	507.054374674	426.0
5.4272	507.232518521	413.0
5.4374	507.409864066	386.0
5.4477	507.588141854	372.0
5.4579	507.763893772	378.0
5.4682	507.940569555	395.0
5.4784	508.114742165	356.0
5.4886	508.288134268	353.0
5.4989	508.462437833	362.0
5.5091	508.634271835	323.0
5.5194	508.807009107	316.0
5.5296	508.977299008	318.0
5.5398	509.146825801	299.0
5.5501	509.317243738	293.0
5.5603	509.485247163	289.0
5.5706	509.654133723	291.0
5.5808	509.820627469	298.0
5.591	509.986375119	275.0
5.6013	510.152994046	220.0
5.6115	510.317252287	253.0
5.6218	510.482373977	235.0
5.632	510.645156193	236.0
5.6422	510.807208945	230.0
5.6525	510.970113552	224.0
5.6627	511.130710098	205.0
5.673	511.292150844	208.0
5.6832	511.451304269	209.0
5.6934	511.609744492	180.0
5.7037	511.769017579	170.0
5.7139	511.926034058	176.0
5.7242	512.083875916	182.0
5.7344	512.239481444	155.0
5.7446	512.394389669	165.0
5.7549	512.550112192	168.0
5.7651	512.703628411	138.0
5.7754	512.857951611	141.0
5.7856	513.010088332	148.0
5.7958	513.161543295	141.0
5.8061	513.313794404	110.0
5.8163	513.463888392	133.0
5.8266	513.614771371	126.0
5.8368	513.763516615	122.0
5.847	513.911595297	104.0
5.8573	514.060452377	97.0
5.8675	514.207200424	89.0
5.8778	514.354719874	84.0
5.888	514.500149242	97.0
5.8982	514.644926909	85.0
5.9085	514.790465621	106.0
5.9187	514.933942316	86.0
5.929	515.078173217	73.0
5.9392	515.220360629	72.0
5.9494	515.361910868	60.0
5.9597	515.504205186	72.0
5.9699	515.644483454	46.0
5.9802	515.785499116	62.0
5.9904	515.924516842	69.0
6.0006	516.0629116	56.0
6.0109	516.20203385	48.0
6.0211	516.339184991	45.0
6.0314	516.477057088	67.0
6.0416	516.612975789	53.0
6.0518	516.748285408	56.0
6.0621	516.884306302	40.0
6.0723	517.018400028	41.0
6.0826	517.153198638	38.0
6.0928	517.286087397	46.0
6.103	517.418380653	33.0
6.1133	517.551369327	38.0
6.1235	517.682473795	39.0
6.1338	517.814267433	32.0
6.144	517.944193795	38.0
6.1542	518.073537928	33.0
6.1645	518.203561978	24.0
6.1747	518.331743825	22.0
6.185	518.460599479	25.0
6.1952	518.587629483	38.0
6.2054	518.714090237	29.0
6.2157	518.841215751	19.0
6.2259	518.966540128	20.0
6.2362	519.092523292	28.0
6.2464	519.216721504	18.0
6.2566	519.340363156	25.0
6.2669	519.464654749	20.0
6.2771	519.587185357	32.0
6.2874	519.710360066	23.0
6.2976	519.831789613	24.0
6.3078	519.952675008	10.0
6.3181	520.074195854	15.0
6.3283	520.193994972	18.0
6.3386	520.314423832	19.0
6.3488	520.433146435	15.0
6.359	520.551337015	14.0
6.3693	520.670148882	12.0
6.3795	520.787277401	13.0
6.3898	520.905021624	15.0
6.4	521.021097626	11.0
6.4102	521.136653465	17.0
6.4205	521.252816741	9.0
6.4307	521.367334195	8.0
6.441	521.482453628	7.0
6.4512	521.595942028	19.0
6.4614	521.708921861	5.0
6.4717	521.822495589	9.0
6.4819	521.934460185	14.0
6.4922	522.04701334	15.0
6.5024	522.157971822	14.0
6.5126	522.268433074	12.0
6.5229	522.379474982	10.0
6.5331	522.488943629	9.0
6.5434	522.598987714	15.0
6.5536	522.707472675	3.0
6.5638	522.815471491	6.0
6.5741	522.924038019	7.0
6.5843	523.031066357	11.0
6.5946	523.138657306	11.0
6.6048	523.244723887	6.0
6.615	523.35031516	7.0
6.6253	523.456461489	8.0
6.6355	523.561103919	4.0
6.6458	523.666296417	7.0
6.656	523.769998529	10.0
6.6662	523.873235929	6.0
6.6765	523.977016012	8.0
6.6867	524.07932572	5.0
6.697	524.182173235	9.0
6.7072	524.283563588	5.0
6.7174	524.384499588	12.0
6.7277	524.485966173	3.0
6.7379	524.585995162	7.0
6.7482	524.686549968	5.0
6.7584	524.785680096	10.0
6.7686	524.884366	8.0
6.7789	524.983570661	5.0
6.7891	525.081369773	6.0
6.7994	525.179682981	12.0
6.8096	525.27660327	5.0
6.8198	525.373089237	4.0
6.8301	525.470082397	5.0
6.8403	525.565701341	6.0
6.8506	525.661822921	4.0
6.8608	525.756582633	8.0
6.871	525.850917705	3.0
6.8813	525.945748664	6.0
6.8915	526.039236041	3.0
6.9018	526.133214849	6.0
6.912	526.225862148	8.0
6.9222	526.318094274	7.0
6.9325	526.410811232	8.0
6.9427	526.50221456	9.0
6.953	526.594098363	5.0
6.9632	526.684680341	4.0
6.9734	526.7748564	4.0
6.9837	526.865506483	1.0
6.9939	526.95487222	7.0
7.0042	527.044707721	7.0
7.0144	527.133270417	5.0
7.0246	527.221436244	10.0
7.0349	527.310065528	7.0
7.0451	527.397439096	2.0
7.0554	527.485271956	4.0
7.0656	527.571860386	5.0
7.0758	527.658060793	7.0
7.0861	527.744714325	7.0
7.0963	527.830140135	2.0
7.1066	527.916014999	6.0
7.1168	528.000673172	4.0
7.127	528.084951973	5.0
7.1373	528.169673798	7.0
7.1475	528.25319527	3.0
7.1578	528.337155784	4.0
7.168	528.419926732	7.0
7.1782	528.502326764	6.0
7.1885	528.585159944	6.0
7.1987	528.66681953	5.0
7.209	528.748908371	1.0
7.2192	528.829834163	4.0
7.2294	528.910397308	5.0
7.2397	528.991383946	5.0
7.2499	529.07122315	4.0
7.2602	529.151482042	5.0
7.2704	529.230603811	8.0
7.2806	529.309371018	3.0
7.2909	529.388552276	2.0
7.3011	529.466611681	2.0
7.3114	529.545081417	4.0
7.3216	529.622439379	5.0
7.3318	529.699450683	3.0
7.3421	529.776866809	3.0
7.3523	529.853186089	2.0
7.3626	529.929906553	3.0
7.3728	530.005540029	7.0
7.383	530.080834573	5.0
7.3933	530.156524915	1.0
7.4035	530.231142862	2.0
7.4138	530.30615305	7.0
7.424	530.380100481	0.0
7.4342	530.453716536	3.0
7.4445	530.527719565	5.0
7.4547	530.600674107	7.0
7.465	530.674012144	4.0
7.4752	530.746311116	2.0
7.4854	530.8182861	3.0
7.4957	530.890639431	2.0
7.5059	530.961967647	3.0
7.5162	531.033670811	3.0
7.5264	531.104358071	2.0
7.5366	531.174728567	3.0
7.5469	531.245468975	7.0
7.5571	531.315207121	3.0
7.5674	531.385311855	2.0
7.5776	531.454423334	1.0
7.5878	531.523225108	7.0
7.5981	531.59238855	4.0
7.6083	531.660572071	6.0
7.6186	531.72911401	5.0
7.6288	531.796684834	3.0
7.639	531.863952858	4.0
7.6493	531.931574487	3.0
7.6595	531.998238041	8.0
7.6698	532.065252021	2.0
7.68	532.131316536	5.0
7.6902	532.197085001	2.0
7.7005	532.263199187	4.0
7.7107	532.328376656	10.0
7.721	532.393896741	4.0
7.7312	532.458488525	3.0
7.7414	532.522790859	3.0
7.7517	532.587431208	1.0
7.7619	532.651155721	3.0
7.7722	532.715215211	2.0
7.7824	532.778367095	5.0
7.7926	532.841235982	3.0
7.8029	532.904435348	3.0
7.8131	532.966739295	4.0
