TL-DOS Lehrstuhlversuch
detector=R1408201
job_number=2015-10-22-012
irradiation_dose [mSv]=5.0

[BEGIN DATA]
time [sec] 	 temperature [K] 	 photoncount 
0.0	169.135343411	0.0
0.0102	171.600207951	0.0
0.0205	174.072334747	2.0
0.0307	176.503834829	1.0
0.041	178.942498865	2.0
0.0512	181.341086109	2.0
0.0614	183.72346357	0.0
0.0717	186.112860254	5.0
0.0819	188.462989803	1.0
0.0922	190.820043562	2.0
0.1024	193.138361708	3.0
0.1126	195.441012532	1.0
0.1229	197.750447679	3.0
0.1331	200.021929773	3.0
0.1434	202.300104358	0.0
0.1536	204.540839621	3.0
0.1638	206.766431873	4.0
0.1741	208.99858141	3.0
0.1843	211.194047998	2.0
0.1946	213.395983111	0.0
0.2048	215.561731817	0.0
0.215	217.712844273	1.0
0.2253	219.870294575	1.0
0.2355	221.992289528	0.0
0.2458	224.120536536	3.0
0.256	226.21380812	1.0
0.2662	228.29293326	0.0
0.2765	230.378184148	0.0
0.2867	232.429166206	0.0
0.297	234.486191093	0.0
0.3072	236.509411014	0.0
0.3174	238.518957904	0.0
0.3277	240.534425542	0.0
0.3379	242.516771163	1.0
0.3482	244.504957388	0.0
0.3584	246.460469936	0.0
0.3686	248.402767023	0.0
0.3789	250.35078672	1.0
0.3891	252.266792832	0.0
0.3994	254.188444093	0.0
0.4096	256.078515106	0.0
0.4198	257.955812915	0.0
0.4301	259.838641826	0.0
0.4403	261.690528492	0.0
0.4506	263.547871391	0.0
0.4608	265.37469088	1.0
0.471	267.189164622	0.0
0.4813	269.008984367	0.0
0.4915	270.798897355	0.0
0.5018	272.594083981	0.0
0.512	274.359768668	2.0
0.5222	276.113520761	0.0
0.5325	277.872439952	0.0
0.5427	279.60245322	0.0
0.553	281.337563643	1.0
0.5632	283.044159415	3.0
0.5734	284.739221918	0.0
0.5837	286.439278601	0.0
0.5939	288.111396702	0.0
0.6042	289.788441383	0.0
0.6144	291.437925658	1.0
0.6246	293.076262627	1.0
0.6349	294.719426646	4.0
0.6451	296.335587052	2.0
0.6554	297.956509168	0.0
0.6656	299.550793192	0.0
0.6758	301.134302957	1.0
0.6861	302.722478234	1.0
0.6963	304.284553577	0.0
0.7066	305.85123128	1.0
0.7168	307.392162338	1.0
0.727	308.9226797	1.0
0.7373	310.457706441	0.0
0.7475	311.967506687	5.0
0.7578	313.481755273	3.0
0.768	314.971118831	7.0
0.7782	316.450417188	5.0
0.7885	317.934074018	4.0
0.7987	319.393348561	3.0
0.809	320.85692258	8.0
0.8192	322.296444352	5.0
0.8294	323.726237757	2.0
0.8397	325.160243777	9.0
0.8499	326.570683468	4.0
0.8602	327.985278753	9.0
0.8704	329.376626702	7.0
0.8806	330.758571846	7.0
0.8909	332.144588629	9.0
0.9011	333.507827733	15.0
0.9114	334.875083364	5.0
0.9216	336.219869635	14.0
0.9318	337.555567767	19.0
0.9421	338.89520128	17.0
0.9523	340.212819374	21.0
0.9626	341.534319579	21.0
0.9728	342.834102366	38.0
0.983	344.12510115	24.0
0.9933	345.419903617	44.0
1.0035	346.693427414	39.0
1.0138	347.970703407	28.0
1.024	349.226988758	44.0
1.0342	350.474784064	54.0
1.0445	351.726255763	59.0
1.0547	352.957160885	75.0
1.065	354.191692636	83.0
1.0752	355.405936201	90.0
1.0854	356.611973841	90.0
1.0957	357.821564842	119.0
1.1059	359.011277531	113.0
1.1162	360.204495482	130.0
1.1264	361.378104195	117.0
1.1366	362.543781595	137.0
1.1469	363.712893443	154.0
1.1571	364.86279221	189.0
1.1674	366.016078935	180.0
1.1776	367.150412647	212.0
1.1878	368.27708047	244.0
1.1981	369.407067806	263.0
1.2083	370.518485029	275.0
1.2186	371.633176832	278.0
1.2288	372.729549888	314.0
1.239	373.818513595	331.0
1.2493	374.910685727	363.0
1.2595	375.984909198	376.0
1.2698	377.062297664	431.0
1.28	378.121980424	434.0
1.2902	379.174501788	484.0
1.3005	380.230124208	568.0
1.3107	381.268398621	585.0
1.321	382.309732113	582.0
1.3312	383.333952422	617.0
1.3414	384.351250994	660.0
1.3517	385.371546843	692.0
1.3619	386.37507524	757.0
1.3722	387.381560343	745.0
1.3824	388.371504958	755.0
1.3926	389.354759473	865.0
1.4029	390.340910961	914.0
1.4131	391.310856122	935.0
1.4234	392.283659042	972.0
1.4336	393.240475005	1034.0
1.4438	394.190824753	1091.0
1.4541	395.143974526	1120.0
1.4643	396.081460319	1107.0
1.4746	397.021708237	1120.0
1.4848	397.946504203	1210.0
1.495	398.865050347	1215.0
1.5053	399.786302813	1263.0
1.5155	400.692415497	1260.0
1.5258	401.60119787	1261.0
1.536	402.495045393	1250.0
1.5462	403.382852246	1265.0
1.5565	404.273274853	1219.0
1.5667	405.149064334	1202.0
1.577	406.027434161	1263.0
1.5872	406.891368937	1214.0
1.5974	407.749465193	1250.0
1.6077	408.610089668	1161.0
1.6179	409.456570715	1180.0
1.6282	410.305545759	1141.0
1.6384	411.140568821	1091.0
1.6486	411.969948751	1066.0
1.6589	412.801772292	1019.0
1.6691	413.619925718	1013.0
1.6794	414.440489678	926.0
1.6896	415.247568562	905.0
1.6998	416.049193163	910.0
1.7101	416.853179598	876.0
1.7203	417.643953391	826.0
1.7306	418.437057049	748.0
1.7408	419.217126911	719.0
1.751	419.991925018	726.0
1.7613	420.769005921	711.0
1.7715	421.533316344	712.0
1.7818	422.299878663	694.0
1.792	423.053843364	677.0
1.8022	423.802712731	659.0
1.8125	424.553788499	691.0
1.8227	425.292521154	681.0
1.833	426.033430344	647.0
1.8432	426.762163498	675.0
1.8534	427.485971833	729.0
1.8637	428.211912733	693.0
1.8739	428.925923583	720.0
1.8842	429.642038131	754.0
1.8944	430.346384115	703.0
1.9046	431.04597009	735.0
1.9149	431.747617263	794.0
1.9251	432.437733628	839.0
1.9354	433.129883289	882.0
1.9456	433.810658224	896.0
1.9558	434.486832445	924.0
1.9661	435.164998885	949.0
1.9763	435.832020397	937.0
1.9866	436.501007161	994.0
1.9968	437.158999856	1029.0
2.007	437.8125458	1030.0
2.0173	438.468017293	1103.0
2.0275	439.112716825	1057.0
2.0378	439.759315842	1069.0
2.048	440.395288708	1099.0
2.0582	441.026963634	1187.0
2.0685	441.66049967	1164.0
2.0787	442.283624231	1164.0
2.089	442.90858471	1234.0
2.0992	443.523274643	1256.0
2.1094	444.133810469	1243.0
2.1197	444.746145122	1238.0
2.1299	445.348416721	1228.0
2.1402	445.952462799	1185.0
2.1504	446.546582038	1256.0
2.1606	447.136686185	1211.0
2.1709	447.728528963	1233.0
2.1811	448.310645448	1195.0
2.1914	448.89447703	1191.0
2.2016	449.468713974	1237.0
2.2118	450.039070194	1211.0
2.2221	450.61110686	1175.0
2.2323	451.173742725	1235.0
2.2426	451.738036291	1272.0
2.2528	452.293056305	1194.0
2.263	452.844325464	1241.0
2.2733	453.397218833	1166.0
2.2835	453.941026001	1214.0
2.2938	454.486435394	1153.0
2.304	455.022881576	1115.0
2.3142	455.555702426	1123.0
2.3245	456.090093131	1088.0
2.3347	456.615701706	1094.0
2.345	457.142858888	1060.0
2.3552	457.661352814	1054.0
2.3654	458.17634273	1052.0
2.3757	458.692849967	1109.0
2.3859	459.200868968	1025.0
2.3962	459.710384752	1070.0
2.4064	460.211527197	993.0
2.4166	460.709282895	1019.0
2.4269	461.208505135	1003.0
2.4371	461.699523201	1033.0
2.4474	462.191987958	986.0
2.4576	462.676359593	1057.0
2.4678	463.157457818	1037.0
2.4781	463.639973508	958.0
2.4883	464.114559577	993.0
2.4986	464.590543923	1002.0
2.5088	465.058705985	986.0
2.519	465.523704182	986.0
2.5293	465.990072408	982.0
2.5395	466.44877638	973.0
2.5498	466.908831835	967.0
2.56	467.36132678	1009.0
2.5702	467.810763739	996.0
2.5805	468.261524879	987.0
2.5907	468.70487825	914.0
2.601	469.149537878	982.0
2.6112	469.586890008	1008.0
2.6214	470.021286488	979.0
2.6317	470.456962836	952.0
2.6419	470.885479316	999.0
2.6522	471.315258339	978.0
2.6624	471.737974412	1017.0
2.6726	472.157833746	1035.0
2.6829	472.578930116	962.0
2.6931	472.993106225	989.0
2.7034	473.408502625	983.0
2.7136	473.817072438	939.0
2.7238	474.222881113	945.0
2.7341	474.629885426	993.0
2.7443	475.030201067	938.0
2.7546	475.431696161	1002.0
2.7648	475.826593121	944.0
2.775	476.218821345	912.0
2.7853	476.612205195	958.0
2.7955	476.999124209	942.0
2.8058	477.387183207	958.0
2.816	477.768864878	917.0
2.8262	478.147967123	988.0
2.8365	478.52818632	929.0
2.8467	478.902157029	920.0
2.857	479.277229572	920.0
2.8672	479.646138205	901.0
2.8774	480.012553734	889.0
2.8877	480.380048836	868.0
2.8979	480.741504556	855.0
2.9082	481.104025237	872.0
2.9184	481.460588285	891.0
2.9286	481.81474166	852.0
2.9389	482.169938481	833.0
2.9491	482.519298028	824.0
2.9594	482.869686898	845.0
2.9696	483.214317507	870.0
2.9798	483.556619084	855.0
2.9901	483.899929187	823.0
3.0003	484.237597363	852.0
3.0106	484.576260413	830.0
3.0208	484.909357905	815.0
3.031	485.240204306	825.0
3.0413	485.572025482	809.0
3.0515	485.898393539	833.0
3.0618	486.225723177	827.0
3.072	486.547673509	790.0
3.0822	486.867448083	783.0
3.0925	487.188164812	781.0
3.1027	487.50361091	821.0
3.113	487.81998641	797.0
3.1232	488.131162624	813.0
3.1334	488.440235891	755.0
3.1437	488.750219784	753.0
3.1539	489.055109429	780.0
3.1642	489.360897374	752.0
3.1744	489.661660026	807.0
3.1846	489.960390108	735.0
3.1949	490.260000341	780.0
3.2051	490.554686806	775.0
3.2154	490.850241509	769.0
3.2256	491.140939092	755.0
3.2358	491.429672124	762.0
3.2461	491.719255854	714.0
3.2563	492.00408059	791.0
3.2666	492.289744508	765.0
3.2768	492.570713851	790.0
3.287	492.849784387	782.0
3.2973	493.129677151	743.0
3.3075	493.404970183	728.0
3.3178	493.681074313	737.0
3.328	493.952640972	756.0
3.3382	494.222372369	747.0
3.3485	494.492898478	737.0
3.3587	494.758978785	763.0
3.369	495.025843047	752.0
3.3792	495.288321685	790.0
3.3894	495.549026478	786.0
3.3997	495.810499389	718.0
3.4099	496.067675276	751.0
3.4202	496.325608884	781.0
3.4304	496.579303633	763.0
3.4406	496.831283899	790.0
3.4509	497.084006577	733.0
3.4611	497.332576033	780.0
3.4714	497.581877852	724.0
3.4816	497.827082667	734.0
3.4918	498.070630373	748.0
3.5021	498.314895647	739.0
3.5123	498.555146687	739.0
3.5226	498.796105582	726.0
3.5328	499.033104578	734.0
3.543	499.268501923	775.0
3.5533	499.504592821	711.0
3.5635	499.736803822	763.0
3.5738	499.969698989	691.0
3.584	500.198766777	728.0
3.5942	500.426286513	744.0
3.6045	500.654476592	691.0
3.6147	500.878916615	720.0
3.625	501.104017909	749.0
3.6352	501.325419907	642.0
3.6454	501.545325659	688.0
3.6557	501.765879321	673.0
3.6659	501.982808424	688.0
3.6762	502.200376667	687.0
3.6864	502.414369413	621.0
3.6966	502.626915984	661.0
3.7069	502.840088783	610.0
3.7171	503.049758319	604.0
3.7274	503.260045607	587.0
3.7376	503.466877052	577.0
3.7478	503.672310718	606.0
3.7581	503.878349656	609.0
3.7683	504.081002568	557.0
3.7786	504.284252559	543.0
3.7888	504.484162357	546.0
3.799	504.682721153	507.0
3.8093	504.881864966	556.0
3.8195	505.077736066	489.0
3.8298	505.274184264	462.0
3.84	505.467404049	499.0
3.8502	505.659318044	466.0
3.8605	505.851797478	472.0
3.8707	506.041113721	466.0
3.881	506.230987749	439.0
3.8912	506.417741403	432.0
3.9014	506.603232967	420.0
3.9117	506.789271045	449.0
3.9219	506.972251791	374.0
3.9322	507.155771654	384.0
3.9424	507.336275569	379.0
3.9526	507.515559627	355.0
3.9629	507.695371913	361.0
3.9731	507.872229179	312.0
3.9834	508.049607521	320.0
3.9936	508.224070843	308.0
4.0038	508.397355133	314.0
4.0141	508.571149972	315.0
4.0243	508.742088682	280.0
4.0346	508.91353103	246.0
4.0448	509.08215591	225.0
4.055	509.249641213	240.0
4.0653	509.41761998	242.0
4.0755	509.582838199	220.0
4.0858	509.748543202	227.0
4.096	509.911525024	223.0
4.1062	510.073405405	202.0
4.1165	510.235762737	206.0
4.1267	510.395451902	184.0
4.137	510.555611561	180.0
4.1472	510.71313917	153.0
4.1574	510.869602199	166.0
4.1677	511.026526217	152.0
4.1779	511.180871359	160.0
4.1882	511.33567125	144.0
4.1984	511.487927173	141.0
4.2086	511.639154142	141.0
4.2189	511.790826673	128.0
4.2291	511.940006631	118.0
4.2394	512.089626119	106.0
4.2496	512.236786774	120.0
4.2598	512.382952908	92.0
4.2701	512.529549694	79.0
4.2803	512.673737321	96.0
4.2906	512.818349769	84.0
4.3008	512.96058567	88.0
4.311	513.101860332	64.0
4.3213	513.243551233	71.0
4.3315	513.382913598	71.0
4.3418	513.522686568	61.0
4.352	513.660162522	63.0
4.3622	513.796709405	59.0
4.3725	513.933658598	41.0
4.3827	514.06835718	58.0
4.393	514.203452625	43.0
4.4032	514.336327924	46.0
4.4134	514.468305245	48.0
4.4237	514.600671411	40.0
4.4339	514.730862284	42.0
4.4442	514.861436739	48.0
4.4544	514.989865345	28.0
4.4646	515.117426024	44.0
4.4749	515.245362536	29.0
4.4851	515.37119655	28.0
4.4954	515.497401311	28.0
4.5056	515.621532034	26.0
4.5158	515.744823874	30.0
4.5261	515.86847897	33.0
4.5363	515.99010193	23.0
4.5466	516.112083228	17.0
4.5568	516.232059897	23.0
4.567	516.351225756	24.0
4.5773	516.470742715	26.0
4.5875	516.588295543	22.0
4.5978	516.706194718	17.0
4.608	516.822156349	14.0
4.6182	516.937334304	17.0
4.6285	517.05285161	24.0
4.6387	517.166470514	18.0
4.649	517.280424174	16.0
4.6592	517.39250513	10.0
4.6694	517.503828637	14.0
4.6797	517.615480138	17.0
4.6899	517.725296767	13.0
4.7002	517.835436951	13.0
4.7104	517.9437671	13.0
4.7206	518.051365148	10.0
4.7309	518.159280214	20.0
4.7411	518.265421813	12.0
4.7514	518.371876137	12.0
4.7616	518.476581001	10.0
4.7718	518.580578264	14.0
4.7821	518.684881935	7.0
4.7923	518.787471488	19.0
4.8026	518.890363302	12.0
4.8128	518.991564201	9.0
4.823	519.092081179	11.0
4.8333	519.192894311	14.0
4.8435	519.292050689	12.0
4.8538	519.391499213	10.0
4.864	519.489313408	5.0
4.8742	519.586466569	4.0
4.8845	519.683905974	4.0
4.8947	519.779744068	7.0
4.905	519.875864531	7.0
4.9152	519.970405358	15.0
4.9254	520.064307274	10.0
4.9357	520.158485854	8.0
4.9459	520.251116711	11.0
4.9562	520.344020487	7.0
4.9664	520.435397491	7.0
4.9766	520.526156964	6.0
4.9869	520.617183843	3.0
4.9971	520.706714794	12.0
5.0074	520.796509531	6.0
5.0176	520.884828589	12.0
5.0278	520.972550782	5.0
5.0381	521.060531432	6.0
5.0483	521.147066216	11.0
5.0586	521.233855958	5.0
5.0688	521.319219405	5.0
5.079	521.404005961	6.0
5.0893	521.489042325	9.0
5.0995	521.572681208	5.0
5.1098	521.656566518	5.0
5.12	521.739073263	4.0
5.1302	521.821022424	6.0
5.1405	521.903213032	7.0
5.1507	521.984052927	6.0
5.161	522.065131002	5.0
5.1712	522.144876646	2.0
5.1814	522.224083366	9.0
5.1917	522.303523452	8.0
5.2019	522.381658027	6.0
5.2122	522.460022811	4.0
5.2224	522.537099755	6.0
5.2326	522.613655809	10.0
5.2429	522.690437421	4.0
5.2531	522.76595721	6.0
5.2634	522.841699504	2.0
5.2736	522.916197056	8.0
5.2838	522.99019115	3.0
5.2941	523.064403253	5.0
5.3043	523.13739576	7.0
5.3146	523.210603327	4.0
5.3248	523.282607806	7.0
5.335	523.354125676	9.0
5.3453	523.425854259	7.0
5.3555	523.496404061	7.0
5.3658	523.567161725	6.0
5.376	523.636756563	7.0
5.3862	523.705881076	4.0
5.3965	523.775209251	3.0
5.4067	523.843398092	4.0
5.417	523.91178784	5.0
5.4272	523.979053676	3.0
5.4374	524.045864926	4.0
5.4477	524.112873022	4.0
5.4579	524.178779914	2.0
5.4682	524.244880988	7.0
5.4784	524.309895762	4.0
5.4886	524.374471163	6.0
5.4989	524.439236823	0.0
5.5091	524.50293813	6.0
5.5194	524.566827121	2.0
5.5296	524.629666165	4.0
5.5398	524.69208054	6.0
5.5501	524.754678808	10.0
5.5603	524.81624834	12.0
5.5706	524.877999276	6.0
5.5808	524.938735402	7.0
5.591	524.99906107	4.0
5.6013	525.059564477	6.0
5.6115	525.119073575	1.0
5.6218	525.178758006	3.0
5.632	525.237461588	7.0
5.6422	525.295768448	3.0
5.6525	525.354247099	6.0
5.6627	525.411764716	2.0
5.673	525.469451798	5.0
5.6832	525.526190855	7.0
5.6934	525.582546467	5.0
5.7037	525.63906812	2.0
5.7139	525.694660901	5.0
5.7242	525.750417476	1.0
5.7344	525.805257752	6.0
5.7446	525.859727415	7.0
5.7549	525.914357562	3.0
5.7651	525.968089922	4.0
5.7754	526.021980594	3.0
5.7856	526.074985631	4.0
5.7958	526.127632458	4.0
5.8061	526.180434398	7.0
5.8163	526.232368597	5.0
5.8266	526.284455809	6.0
5.8368	526.335687025	7.0
5.847	526.386572017	4.0
5.8573	526.437606932	5.0
5.8675	526.487803144	5.0
5.8778	526.53814725	2.0
5.888	526.587664005	5.0
5.8982	526.636846123	4.0
5.9085	526.686173147	0.0
5.9187	526.734689534	4.0
5.929	526.783348867	7.0
5.9392	526.831208535	8.0
5.9494	526.878744766	0.0
5.9597	526.926421053	3.0
5.9699	526.973313833	2.0
5.9802	527.020344773	6.0
5.9904	527.06660281	2.0
6.0006	527.112548234	4.0
6.0109	527.158629026	1.0
6.0211	527.203952531	7.0
6.0314	527.249409573	2.0
6.0416	527.294119579	4.0
6.0518	527.338527431	2.0
6.0621	527.383066123	1.0
6.0723	527.42687287	4.0
6.0826	527.470808685	1.0
6.0928	527.514022462	7.0
6.103	527.556944199	6.0
6.1133	527.599992396	4.0
6.1235	527.642333144	5.0
6.1338	527.68479864	4.0
6.144	527.726566262	3.0
6.1542	527.768051616	4.0
6.1645	527.809659198	4.0
6.1747	527.850583006	6.0
6.185	527.891627387	2.0
6.1952	527.931997249	6.0
6.2054	527.972094289	3.0
6.2157	528.012309468	7.0
6.2259	528.051863753	6.0
6.2362	528.091534578	0.0
6.2464	528.130553456	3.0
6.2566	528.169308643	2.0
6.2669	528.208178014	4.0
6.2771	528.246408609	2.0
6.2874	528.284751844	5.0
6.2976	528.322464949	5.0
6.3078	528.359923187	6.0
6.3181	528.397491788	4.0
6.3283	528.434442991	6.0
6.3386	528.471503063	5.0
6.3488	528.507954093	4.0
6.359	528.544158785	4.0
6.3693	528.580470147	5.0
6.3795	528.616184772	3.0
6.3898	528.652004623	4.0
6.4	528.687235814	6.0
6.4102	528.72222891	0.0
6.4205	528.757325107	5.0
6.4307	528.791844536	4.0
6.441	528.82646567	4.0
6.4512	528.860517844	3.0
6.4614	528.89433989	6.0
6.4717	528.928261588	2.0
6.4819	528.961625819	2.0
6.4922	528.995088351	4.0
6.5024	529.028000963	6.0
6.5126	529.06069115	3.0
6.5229	529.093477652	10.0
6.5331	529.125725344	2.0
6.5434	529.158068047	7.0
6.5536	529.189879233	7.0
6.5638	529.221475438	5.0
6.5741	529.253164735	4.0
6.5843	529.284333252	2.0
6.5946	529.315593602	4.0
6.6048	529.346340222	0.0
6.615	529.376879054	0.0
6.6253	529.407507864	2.0
6.6355	529.437633322	3.0
6.6458	529.467847539	3.0
6.656	529.497565219	8.0
6.6662	529.527082065	2.0
6.6765	529.556685876	2.0
6.6867	529.585803181	4.0
6.697	529.615006275	2.0
6.7072	529.643729448	2.0
6.7174	529.672258507	3.0
6.7277	529.700871623	3.0
6.7379	529.729014513	9.0
6.7482	529.75724032	2.0
6.7584	529.785002267	3.0
6.7686	529.812576598	4.0
6.7789	529.840232171	4.0
6.7891	529.867433254	3.0
6.7994	529.894714481	3.0
6.8096	529.92154737	0.0
6.8198	529.948198921	3.0
6.8301	529.974928996	2.0
6.8403	530.001219791	4.0
6.8506	530.027588047	5.0
6.8608	530.053522969	2.0
6.871	530.079282622	6.0
6.8813	530.105118171	4.0
6.8915	530.13052914	0.0
6.9018	530.156014978	3.0
6.912	530.181081984	4.0
6.9222	530.205979586	3.0
6.9325	530.230950544	4.0
6.9427	530.255511132	4.0
6.953	530.280144082	3.0
6.9632	530.304372217	3.0
6.9734	530.328436617	2.0
6.9837	530.352571917	1.0
6.9939	530.376310581	1.0
7.0042	530.400119186	2.0
7.0144	530.423536522	4.0
7.0246	530.446795603	1.0
7.0349	530.470123212	5.0
7.0451	530.493067458	4.0
7.0554	530.516079304	2.0
7.0656	530.538712976	3.0
7.0758	530.561193688	2.0
7.0861	530.583740635	2.0
7.0963	530.605917047	3.0
7.1066	530.628158799	4.0
7.1168	530.650035031	3.0
7.127	530.671763422	6.0
7.1373	530.693555832	7.0
7.1475	530.714990108	3.0
7.1578	530.736487535	2.0
7.168	530.757631676	6.0
7.1782	530.778632923	2.0
7.1885	530.799696047	1.0
7.1987	530.820413021	7.0
7.209	530.841191034	3.0
7.2192	530.861627582	4.0
7.2294	530.88192602	1.0
7.2397	530.902284262	1.0
7.2499	530.92230794	2.0
7.2602	530.942390613	5.0
7.2704	530.962143249	4.0
7.2806	530.981762396	2.0
7.2909	531.001439347	4.0
7.3011	531.020792929	2.0
7.3114	531.040203532	4.0
7.3216	531.059295144	7.0
7.3318	531.078257733	4.0
7.3421	531.097276191	2.0
7.3523	531.115982103	4.0
7.3626	531.134743127	3.0
7.3728	531.153195835	5.0
7.383	531.171523838	2.0
7.3933	531.189905841	3.0
7.4035	531.207985756	3.0
7.4138	531.226118939	2.0
7.424	531.243954124	2.0
7.4342	531.261668778	3.0
7.4445	531.279435624	4.0
7.4547	531.296910492	2.0
7.465	531.314436846	1.0
7.4752	531.331675173	6.0
7.4854	531.348797003	4.0
7.4957	531.365969279	5.0
7.5059	531.382859348	1.0
7.5162	531.39979918	2.0
7.5264	531.416460624	5.0
7.5366	531.433009469	3.0
7.5469	531.449607072	4.0
7.5571	531.465931912	5.0
7.5674	531.482304849	2.0
7.5776	531.498408716	3.0
7.5878	531.514403751	1.0
7.5981	531.530445913	7.0
7.6083	531.546224439	1.0
7.6186	531.562049454	2.0
7.6288	531.577614402	1.0
7.639	531.593074161	5.0
7.6493	531.608579469	4.0
7.6595	531.623829965	4.0
7.6698	531.639125393	3.0
7.68	531.654169457	5.0
7.6902	531.669111853	2.0
7.7005	531.684098274	6.0
7.7107	531.698838409	2.0
7.721	531.713621973	4.0
7.7312	531.728162586	2.0
7.7414	531.742604932	3.0
7.7517	531.75708983	2.0
7.7619	531.771336684	3.0
7.7722	531.785625514	4.0
7.7824	531.799679522	5.0
7.7926	531.813638553	0.0
7.8029	531.827638712	2.0
7.8131	531.841408793	3.0
7.8234	531.855219445	3.0
7.8336	531.868803133	2.0
7.8438	531.882295023	3.0
7.8541	531.895826664	3.0
7.8643	531.909135927	4.0
