TL-DOS Lehrstuhlversuch
detector=R1407606
job_number=2015-10-22-012
irradiation_dose [mSv]=5.0

[BEGIN DATA]
time [sec] 	 temperature [K] 	 photoncount 
0.0	100.649483405	0.0
0.0102	102.662290934	0.0
0.0205	104.685618184	2.0
0.0307	106.680218542	0.0
0.041	108.685243464	1.0
0.0512	110.661801348	3.0
0.0614	112.629442898	1.0
0.0717	114.607368114	1.0
0.0819	116.557211049	2.0
0.0922	118.517244628	2.0
0.1024	120.449449949	1.0
0.1126	122.372939011	1.0
0.1229	124.306480983	2.0
0.1331	126.212570819	2.0
0.1434	128.128622629	0.0
0.1536	130.017470627	0.0
0.1638	131.897797954	2.0
0.1741	133.787952609	3.0
0.1843	135.651271137	1.0
0.1946	137.524328097	0.0
0.2048	139.37079168	1.0
0.215	141.20892579	2.0
0.2253	143.05666671	2.0
0.2355	144.878173685	1.0
0.2458	146.709200571	5.0
0.256	148.514230815	0.0
0.2662	150.311118494	4.0
0.2765	152.117397412	1.0
0.2867	153.898031058	0.0
0.297	155.687970993	1.0
0.3072	157.452497634	0.0
0.3174	159.209064422	0.0
0.3277	160.974811717	0.0
0.3379	162.715489201	0.0
0.3482	164.465264149	0.0
0.3584	166.190196058	0.0
0.3686	167.907346728	0.0
0.3789	169.633471901	0.0
0.3891	171.335089812	1.0
0.3994	173.045601046	0.0
0.4096	174.731826701	1.0
0.4198	176.410445723	0.0
0.4301	178.097837867	0.0
0.4403	179.761272673	0.0
0.4506	181.433401243	0.0
0.4608	183.081789186	0.0
0.471	184.722741183	0.0
0.4813	186.372269438	0.0
0.4915	187.998377943	0.0
0.5018	189.632985128	0.0
0.512	191.24438441	0.0
0.5222	192.848514603	0.0
0.5325	194.461028609	0.0
0.5427	196.050648388	0.0
0.553	197.648576142	0.0
0.5632	199.223816762	0.0
0.5734	200.791951407	0.0
0.5837	202.368281738	0.0
0.5939	203.922231571	0.0
0.6042	205.484302956	0.0
0.6144	207.024196289	0.0
0.6246	208.557143099	0.0
0.6349	210.098101691	1.0
0.6451	211.617181988	1.0
0.6554	213.144201594	0.0
0.6656	214.649540808	0.0
0.6758	216.148089375	0.0
0.6861	217.654469944	0.0
0.6963	219.139463152	0.0
0.7066	220.632217517	0.0
0.7168	222.103777982	1.0
0.727	223.568700178	0.0
0.7373	225.041278631	0.0
0.7475	226.49294964	1.0
0.7578	227.952207651	0.0
0.768	229.390747339	0.0
0.7782	230.822797715	0.0
0.7885	232.262332548	1.0
0.7987	233.681429085	1.0
0.809	235.107942377	1.0
0.8192	236.51420225	0.0
0.8294	237.914118428	0.0
0.8397	239.321351116	0.0
0.8499	240.708604129	0.0
0.8602	242.10310747	0.0
0.8704	243.477811865	0.0
0.8806	244.846314912	0.0
0.8909	246.221970292	0.0
0.9011	247.578094327	0.0
0.9114	248.941305999	0.0
0.9216	250.285162998	1.0
0.9318	251.622957803	0.0
0.9421	252.967744449	0.0
0.9523	254.293438018	0.0
0.9626	255.626060182	0.0
0.9728	256.93976198	0.0
0.983	258.247537615	0.0
0.9933	259.562148198	0.0
1.0035	260.85809414	0.0
1.0138	262.160813204	0.0
1.024	263.445036461	0.0
1.0342	264.723466534	0.0
1.0445	266.008578184	0.0
1.0547	267.275444014	1.0
1.065	268.548930983	1.0
1.0752	269.804337177	0.0
1.0854	271.054080182	0.0
1.0957	272.310354834	0.0
1.1059	273.548793091	1.0
1.1162	274.793703911	0.0
1.1264	276.020939677	0.0
1.1366	277.242639332	0.0
1.1469	278.470724068	2.0
1.1571	279.681372644	0.0
1.1674	280.898348545	0.0
1.1776	282.098046007	0.0
1.1878	283.292331585	0.0
1.1981	284.492858967	0.0
1.2083	285.676341444	1.0
1.2186	286.866009265	1.0
1.2288	288.038786364	1.0
1.239	289.206273017	0.0
1.2493	290.379861412	0.0
1.2595	291.536787379	2.0
1.2698	292.699759894	1.0
1.28	293.846220703	0.0
1.2902	294.98750978	1.0
1.3005	296.134763681	1.0
1.3107	297.265729046	2.0
1.321	298.402605279	1.0
1.3312	299.523340317	3.0
1.3414	300.639019673	1.0
1.3517	301.760530007	1.0
1.3619	302.866117308	0.0
1.3722	303.977482842	2.0
1.3824	305.073069377	5.0
1.3926	306.163713677	1.0
1.4029	307.260058111	4.0
1.4131	308.340836814	3.0
1.4234	309.42726409	4.0
1.4336	310.498266437	2.0
1.4438	311.564437449	3.0
1.4541	312.636180688	5.0
1.4643	313.69270748	5.0
1.4746	314.754756096	4.0
1.4848	315.801725907	5.0
1.495	316.843972794	5.0
1.5053	317.891666872	3.0
1.5155	318.924485949	10.0
1.5258	319.962702944	7.0
1.536	320.986179492	7.0
1.5462	322.005039095	6.0
1.5565	323.029223658	9.0
1.5667	324.038867004	15.0
1.577	325.053787143	8.0
1.5872	326.0542976	10.0
1.5974	327.050294713	4.0
1.6077	328.051497298	15.0
1.6179	329.038484961	10.0
1.6282	330.030631008	19.0
1.6384	331.008690717	14.0
1.6486	331.982338359	11.0
1.6589	332.961074665	21.0
1.6691	333.925915022	16.0
1.6794	334.895798013	16.0
1.6896	335.851910753	26.0
1.6998	336.803710429	16.0
1.7101	337.760484583	31.0
1.7203	338.703674604	22.0
1.7306	339.651794106	23.0
1.7408	340.586452351	37.0
1.751	341.516894315	30.0
1.7613	342.452199133	42.0
1.7715	343.374224636	27.0
1.7818	344.301069006	31.0
1.792	345.21475418	31.0
1.8022	346.124317683	35.0
1.8125	347.038634922	42.0
1.8227	347.939970824	56.0
1.833	348.846017461	47.0
1.8432	349.739200185	37.0
1.8534	350.628353726	37.0
1.8637	351.522154331	49.0
1.8739	352.403264892	64.0
1.8842	353.288980482	69.0
1.8944	354.162120818	61.0
1.9046	355.031322381	86.0
1.9149	355.905066732	81.0
1.9251	356.766405794	88.0
1.9354	357.632246552	76.0
1.9456	358.485794235	82.0
1.9558	359.335491529	116.0
1.9661	360.189629674	88.0
1.9763	361.031640896	120.0
1.9866	361.878052799	112.0
1.9968	362.712447474	131.0
2.007	363.543078161	121.0
2.0173	364.37805005	112.0
2.0275	365.201167135	144.0
2.0378	366.028586152	170.0
2.048	366.844257601	165.0
2.0582	367.656249522	191.0
2.0685	368.472485231	184.0
2.0787	369.27713215	181.0
2.089	370.085984469	191.0
2.0992	370.883352826	191.0
2.1094	371.677124222	220.0
2.1197	372.475044178	234.0
2.1299	373.261635388	237.0
2.1402	374.052337633	259.0
2.1504	374.831813607	267.0
2.1606	375.607773334	301.0
2.1709	376.38778853	314.0
2.1811	377.156729189	317.0
2.1914	377.929688633	310.0
2.2016	378.691673718	329.0
2.2118	379.450221456	375.0
2.2221	380.212733662	393.0
2.2323	380.964419835	397.0
2.2426	381.720034616	376.0
2.2528	382.464921293	440.0
2.263	383.206447756	463.0
2.2733	383.951849726	460.0
2.2835	384.686668593	490.0
2.2938	385.425327912	513.0
2.304	386.153499858	506.0
2.3142	386.878386991	557.0
2.3245	387.607062667	544.0
2.3347	388.325392718	631.0
2.345	389.047477043	583.0
2.3552	389.759309325	639.0
2.3654	390.467930503	617.0
2.3757	391.180255212	671.0
2.3859	391.882466444	678.0
2.3962	392.588347707	676.0
2.4064	393.284206975	681.0
2.4166	393.976927194	780.0
2.4269	394.67326784	698.0
2.4371	395.359721947	772.0
2.4474	396.049763733	823.0
2.4576	396.730008411	844.0
2.4678	397.407184477	821.0
2.4781	398.087899731	834.0
2.4883	398.758950293	809.0
2.4986	399.433508029	866.0
2.5088	400.098488497	836.0
2.519	400.76046921	886.0
2.5293	401.425909694	868.0
2.5395	402.081902356	949.0
2.5498	402.741323493	899.0
2.56	403.391382268	867.0
2.5702	404.038508602	880.0
2.5805	404.689017072	872.0
2.5907	405.330289722	867.0
2.601	405.974913914	844.0
2.6112	406.61038583	883.0
2.6214	407.242991106	844.0
2.6317	407.878902625	880.0
2.6419	408.505785569	859.0
2.6522	409.13594485	834.0
2.6624	409.757157224	807.0
2.6726	410.375567285	747.0
2.6829	410.997209399	734.0
2.6931	411.610025533	790.0
2.7034	412.226044484	758.0
2.7136	412.833317292	657.0
2.7238	413.437850667	694.0
2.7341	414.045543571	640.0
2.7443	414.644608544	609.0
2.7546	415.246804465	613.0
2.7648	415.8404505	628.0
2.775	416.431418573	572.0
2.7853	417.025475278	561.0
2.7955	417.611097656	575.0
2.8058	418.199780726	504.0
2.816	418.780105763	515.0
2.8262	419.35781293	534.0
2.8365	419.938539422	510.0
2.8467	420.511020847	496.0
2.857	421.086494285	511.0
2.8672	421.653797238	450.0
2.8774	422.218541065	515.0
2.8877	422.786236464	460.0
2.8979	423.34587181	495.0
2.9082	423.90843203	453.0
2.9184	424.463005106	486.0
2.9286	425.01507648	477.0
2.9389	425.570033196	494.0
2.9491	426.11711072	487.0
2.9594	426.667047486	476.0
2.9696	427.209176334	533.0
2.9798	427.748859616	511.0
2.9901	428.291363495	569.0
3.0003	428.826164986	517.0
3.0106	429.36376156	570.0
3.0208	429.893725419	571.0
3.031	430.42129859	579.0
3.0413	430.951629064	598.0
3.0515	431.474429988	635.0
3.0618	431.999963274	616.0
3.072	432.518035119	637.0
3.0822	433.03376992	655.0
3.0925	433.552200154	663.0
3.1027	434.063269794	644.0
3.113	434.577010484	690.0
3.1232	435.083457162	693.0
3.1334	435.587619239	742.0
3.1437	436.094416264	735.0
3.1539	436.594017862	762.0
3.1642	437.096230575	765.0
3.1744	437.591312947	786.0
3.1846	438.084161983	857.0
3.1949	438.579586841	821.0
3.2051	439.067977732	831.0
3.2154	439.558921146	844.0
3.2256	440.04289422	902.0
3.2358	440.524684071	895.0
3.2461	441.008991945	859.0
3.2563	441.48642369	872.0
3.2666	441.96635068	944.0
3.2768	442.43946374	892.0
3.287	442.910442567	926.0
3.2973	443.383882915	892.0
3.3075	443.850601428	978.0
3.3178	444.319759196	952.0
3.328	444.782255933	994.0
3.3382	445.242666328	949.0
3.3485	445.705483008	925.0
3.3587	446.161728688	958.0
3.369	446.620358887	958.0
3.3792	447.072477524	980.0
3.3894	447.522556635	962.0
3.3997	447.974988036	1011.0
3.4099	448.420995885	1001.0
3.4202	448.869334746	1012.0
3.4304	449.31130816	974.0
3.4406	449.751287813	985.0
3.4509	450.193566973	983.0
3.4611	450.629566721	927.0
3.4714	451.067845174	951.0
3.4816	451.499901017	943.0
3.4918	451.930007838	937.0
3.5021	452.362362566	892.0
3.5123	452.788578788	923.0
3.5226	453.217022582	914.0
3.5328	453.639383397	912.0
3.543	454.059838925	907.0
3.5533	454.482491918	910.0
3.5635	454.899144149	870.0
3.5738	455.317973967	896.0
3.584	455.730857303	859.0
3.5942	456.141878106	833.0
3.6045	456.555047065	837.0
3.6147	456.962349913	820.0
3.625	457.371781487	839.0
3.6352	457.775400013	808.0
3.6454	458.177197799	814.0
3.6557	458.581095538	774.0
3.6659	458.979258798	766.0
3.6762	459.379503016	871.0
3.6864	459.774064627	759.0
3.6966	460.166846355	844.0
3.7069	460.561680914	803.0
3.7171	460.950909672	753.0
3.7274	461.342172692	758.0
3.7376	461.72788062	767.0
3.7478	462.111848603	768.0
3.7581	462.497823353	737.0
3.7683	462.878318093	762.0
3.7786	463.260801447	769.0
3.7888	463.637854361	742.0
3.799	464.013206374	702.0
3.8093	464.390520124	804.0
3.8195	464.76247683	770.0
3.8298	465.136377528	808.0
3.84	465.504969641	768.0
3.8502	465.87189902	789.0
3.8605	466.240746116	772.0
3.8707	466.604356376	731.0
3.881	466.969867007	754.0
3.8912	467.330188173	770.0
3.9014	467.688883916	805.0
3.9117	468.049454343	825.0
3.9219	468.404905446	796.0
3.9322	468.762214276	852.0
3.9424	469.11445009	729.0
3.9526	469.465096954	795.0
3.9629	469.817576435	768.0
3.9731	470.165051467	804.0
3.9834	470.514342539	796.0
3.9936	470.85867443	747.0
4.0038	471.201453026	822.0
4.0141	471.546023117	834.0
4.0243	471.885701054	762.0
4.0346	472.227154281	778.0
4.0448	472.563759608	799.0
4.055	472.898846494	785.0
4.0653	473.235684675	779.0
4.0755	473.567740479	755.0
4.0858	473.901531738	762.0
4.096	474.230583878	776.0
4.1062	474.558151651	780.0
4.1165	474.887431422	817.0
4.1267	475.212036128	780.0
4.137	475.538337346	805.0
4.1472	475.86000579	781.0
4.1574	476.180223173	790.0
4.1677	476.502114138	809.0
4.1779	476.819434944	779.0
4.1882	477.138414194	729.0
4.1984	477.452864624	755.0
4.2086	477.765896556	733.0
4.2189	478.080564515	739.0
4.2291	478.390764866	767.0
4.2394	478.702586446	777.0
4.2496	479.009980831	737.0
4.2598	479.315988547	731.0
4.2701	479.62359558	782.0
4.2803	479.926835254	679.0
4.2906	480.231659779	743.0
4.3008	480.532156451	777.0
4.311	480.83129757	715.0
4.3213	481.132002118	728.0
4.3315	481.428437308	745.0
4.3418	481.726421785	690.0
4.352	482.020175524	695.0
4.3622	482.312604128	684.0
4.3725	482.606561078	681.0
4.3827	482.896344472	697.0
4.393	483.187642388	735.0
4.4032	483.474804501	685.0
4.4134	483.760671213	666.0
4.4237	484.048031977	684.0
4.4339	484.331312836	711.0
4.4442	484.616074233	662.0
4.4544	484.89679263	694.0
4.4646	485.176244696	664.0
4.4749	485.457157287	679.0
4.4851	485.734081524	652.0
4.4954	486.012453076	658.0
4.5056	486.286872351	674.0
4.5158	486.560053709	677.0
4.5261	486.83466282	684.0
4.5363	487.105373073	619.0
4.5466	487.377498164	661.0
4.5568	487.645759664	664.0
4.567	487.912811026	713.0
4.5773	488.181258102	671.0
4.5875	488.445893808	677.0
4.5978	488.711912604	641.0
4.608	488.974154506	693.0
4.6182	489.235213424	645.0
4.6285	489.497636737	643.0
4.6387	489.756334205	637.0
4.649	490.016383727	630.0
4.6592	490.272741106	679.0
4.6694	490.527942046	645.0
4.6797	490.784476766	583.0
4.6899	491.037369245	652.0
4.7002	491.291583439	621.0
4.7104	491.54218834	654.0
4.7206	491.791662751	639.0
4.7309	492.042441013	621.0
4.7411	492.289658763	595.0
4.7514	492.538168571	591.0
4.7616	492.783150074	673.0
4.7718	493.027026455	685.0
4.7821	493.27217743	605.0
4.7923	493.513847789	639.0
4.8026	493.756781212	665.0
4.8128	493.996265504	646.0
4.823	494.234669471	630.0
4.8333	494.474319432	681.0
4.8435	494.710566878	633.0
4.8538	494.948049047	641.0
4.864	495.18215948	631.0
4.8742	495.415213831	585.0
4.8845	495.649486215	676.0
4.8947	495.880432436	677.0
4.905	496.112585673	623.0
4.9152	496.341442833	678.0
4.9254	496.569267609	671.0
4.9357	496.798283086	595.0
4.9459	497.024047037	628.0
4.9562	497.250990919	648.0
4.9664	497.474712686	665.0
4.9766	497.697425235	630.0
4.9869	497.921301767	654.0
4.9971	498.141999734	622.0
5.0074	498.363851156	643.0
5.0176	498.582552764	685.0
5.0278	498.800267801	656.0
5.0381	499.019120702	646.0
5.0483	499.234866363	626.0
5.0586	499.451739595	597.0
5.0688	499.665533694	648.0
5.079	499.878363359	638.0
5.0893	500.092305355	591.0
5.0995	500.303209835	639.0
5.1098	500.515216585	610.0
5.12	500.724213296	612.0
5.1302	500.932267214	619.0
5.1405	501.141408503	594.0
5.1507	501.347580435	632.0
5.161	501.554829904	606.0
5.1712	501.759136876	595.0
5.1814	501.96252221	547.0
5.1917	502.166970517	564.0
5.2019	502.368516097	560.0
5.2122	502.571115033	605.0
5.2224	502.770837501	601.0
5.2326	502.969659013	595.0
5.2429	503.169519643	537.0
5.2531	503.366542683	551.0
5.2634	503.564595443	517.0
5.2736	503.759836279	575.0
5.2838	503.954196376	540.0
5.2941	504.149572276	554.0
5.3043	504.342174258	534.0
5.3146	504.535782853	491.0
5.3248	504.726642623	474.0
5.335	504.916641417	505.0
5.3453	505.107633219	519.0
5.3555	505.295913349	466.0
5.3658	505.485177504	472.0
5.376	505.671754516	478.0
5.3862	505.857489871	469.0
5.3965	506.044195952	447.0
5.4067	506.228251208	438.0
5.417	506.41326841	435.0
5.4272	506.595658765	455.0
5.4374	506.77722635	376.0
5.4477	506.959742878	432.0
5.4579	507.139668065	409.0
5.4682	507.320533611	401.0
5.4784	507.498831256	355.0
5.4886	507.676324592	360.0
5.4989	507.854745578	357.0
5.5091	508.030633371	364.0
5.5194	508.207440422	318.0
5.5296	508.381737193	328.0
5.5398	508.555247705	331.0
5.5501	508.72966505	338.0
5.5603	508.901606045	305.0
5.5706	509.07444567	310.0
5.5808	509.244831345	292.0
5.591	509.414448403	284.0
5.6013	509.584951947	264.0
5.6115	509.753034707	271.0
5.6218	509.921995933	282.0
5.632	510.088558274	239.0
5.6422	510.254369245	265.0
5.6525	510.42104681	259.0
5.6627	510.585357911	255.0
5.673	510.750527767	230.0
5.6832	510.913352567	206.0
5.6934	511.075442857	225.0
5.7037	511.238380294	201.0
5.7139	511.399004371	212.0
5.7242	511.560467932	184.0
5.7344	511.719639058	192.0
5.7446	511.878092156	182.0
5.7549	512.037373393	194.0
5.7651	512.194393178	167.0
5.7754	512.352233611	166.0
5.7856	512.507833049	166.0
5.7958	512.662730572	157.0
5.8061	512.81843765	120.0
5.8163	512.971934023	151.0
5.8266	513.126232628	128.0
5.8368	513.278340525	129.0
5.847	513.429762257	134.0
5.8573	513.581975378	116.0
5.8675	513.7320274	108.0
5.8778	513.882863653	116.0
5.888	514.031558356	120.0
5.8982	514.179582292	101.0
5.9085	514.328379858	94.0
5.9187	514.475064819	97.0
5.929	514.622516413	91.0
5.9392	514.767874512	81.0
5.9494	514.912576895	88.0
5.9597	515.058035549	78.0
5.9699	515.201429003	70.0
5.9802	515.345571887	65.0
5.9904	515.487668253	77.0
6.0006	515.629123617	59.0
6.0109	515.771318281	73.0
6.0211	515.911494087	57.0
6.0314	516.052402507	66.0
6.0416	516.191310331	64.0
6.0518	516.329591536	45.0
6.0621	516.468595453	53.0
6.0723	516.605625813	57.0
6.0826	516.743372348	49.0
6.0928	516.879163178	44.0
6.103	517.01434145	47.0
6.1133	517.150226217	46.0
6.1235	517.284181713	47.0
6.1338	517.418837313	29.0
6.144	517.551581093	44.0
6.1542	517.68372606	36.0
6.1645	517.816561669	39.0
6.1747	517.947511298	22.0
6.185	518.079145321	42.0
6.1952	518.208910424	26.0
6.2054	518.338090152	32.0
6.2157	518.467945023	29.0
6.2259	518.595956235	17.0
6.2362	518.724636484	29.0
6.2464	518.85148975	21.0
6.2566	518.977770776	26.0
6.2669	519.104711796	34.0
6.2771	519.229850526	23.0
6.2874	519.355643281	20.0
6.2976	519.479650049	19.0
6.3078	519.603097418	20.0
6.3181	519.727189971	22.0
6.3283	519.849520677	5.0
6.3386	519.972490731	13.0
6.3488	520.093714876	18.0
6.359	520.214392172	13.0
6.3693	520.335700176	12.0
6.3795	520.455285868	13.0
6.3898	520.575496561	18.0
6.4	520.694000521	13.0
6.4102	520.811969904	19.0
6.4205	520.930555842	14.0
6.4307	521.047458115	15.0
6.441	521.164971365	14.0
6.4512	521.28081618	16.0
6.4614	521.396138414	15.0
6.4717	521.512063367	10.0
6.4819	521.626342435	8.0
6.4922	521.741218771	10.0
6.5024	521.85446411	10.0
6.5126	521.967198595	9.0
6.5229	522.080522274	2.0
6.5331	522.192237001	8.0
6.5434	522.304535592	12.0
6.5536	522.415239786	10.0
6.5638	522.525444588	16.0
6.5741	522.636225364	7.0
6.5843	522.745433291	12.0
6.5946	522.855211982	13.0
6.6048	522.963432052	8.0
6.615	523.071163936	12.0
6.6253	523.17945887	10.0
6.6355	523.286216248	11.0
6.6458	523.393531582	7.0
6.656	523.49932327	7.0
6.6662	523.604637727	5.0
6.6765	523.710502599	9.0
6.6867	523.814864417	5.0
6.697	523.919771671	6.0
6.7072	524.023189468	8.0
6.7174	524.126140743	7.0
6.7277	524.229630082	4.0
6.7379	524.331650095	2.0
6.7482	524.434203304	8.0
6.7584	524.535300479	3.0
6.7686	524.6359416	6.0
6.7789	524.737108711	12.0
6.7891	524.836839467	3.0
6.7994	524.937091455	6.0
6.8096	525.03592008	2.0
6.8198	525.134302886	8.0
6.8301	525.233199878	5.0
6.8403	525.330692746	12.0
6.8506	525.42869515	6.0
6.8608	525.525306131	10.0
6.871	525.621481296	6.0
6.8813	525.71815911	8.0
6.8915	525.813464307	7.0
6.9018	525.909267606	6.0
6.912	526.003710705	11.0
6.9222	526.097727767	4.0
6.9325	526.192236199	10.0
6.9427	526.285402814	1.0
6.953	526.379056355	7.0
6.9632	526.471380218	5.0
6.9734	526.563287603	3.0
6.9837	526.655675333	3.0
6.9939	526.746751355	7.0
7.0042	526.838303377	5.0
7.0144	526.928555557	4.0
7.0246	527.018400606	7.0
7.0349	527.10871522	10.0
7.0451	527.197747561	6.0
7.0554	527.28724522	4.0
7.0656	527.375472205	5.0
7.0758	527.463301194	5.0
7.0861	527.551589212	3.0
7.0963	527.63862373	8.0
7.1066	527.726113125	10.0
7.1168	527.812360358	3.0
7.127	527.898218527	2.0
7.1373	527.984525424	2.0
7.1475	528.069606949	3.0
7.1578	528.155133144	10.0
7.168	528.239445051	8.0
7.1782	528.323376623	1.0
7.1885	528.407746854	10.0
7.1987	528.49091921	6.0
7.209	528.574526257	6.0
7.2192	528.656946264	6.0
7.2294	528.738994471	3.0
7.2397	528.821471494	5.0
7.2499	528.902777521	7.0
7.2602	528.984508485	6.0
7.2704	529.065079045	2.0
7.2806	529.145286148	1.0
7.2909	529.225912445	9.0
7.3011	529.305394022	2.0
7.3114	529.385291001	6.0
7.3216	529.464053614	5.0
7.3318	529.542460927	2.0
7.3421	529.621278027	5.0
7.3523	529.698976093	4.0
7.3626	529.77708024	6.0
7.3728	529.854075477	3.0
7.383	529.930723384	2.0
7.3933	530.007771884	7.0
7.4035	530.083726461	2.0
7.4138	530.160078006	1.0
7.424	530.235345524	5.0
7.4342	530.310273506	5.0
7.4445	530.385593092	1.0
7.4547	530.459843302	7.0
7.465	530.534481572	7.0
7.4752	530.60806014	4.0
7.4854	530.681306792	2.0
7.4957	530.754936259	1.0
7.5059	530.827520347	8.0
7.5162	530.900483787	6.0
7.5264	530.972411304	5.0
7.5366	531.044014352	3.0
7.5469	531.115991626	4.0
7.5571	531.186946978	6.0
7.5674	531.258273171	5.0
7.5776	531.328586685	3.0
7.5878	531.398583011	4.0
7.5981	531.468945166	3.0
7.6083	531.53830833	2.0
7.6186	531.608034013	5.0
7.6288	531.676769741	2.0
7.639	531.7451954	6.0
7.6493	531.813978678	3.0
7.6595	531.881785381	3.0
7.6698	531.949946469	1.0
7.68	532.017139816	6.0
7.6902	532.084030052	2.0
7.7005	532.151269881	6.0
7.7107	532.21755505	6.0
7.721	532.284186652	2.0
7.7312	532.349872227	3.0
7.7414	532.415261493	4.0
7.7517	532.480992509	3.0
7.7619	532.545790285	3.0
7.7722	532.61092672	3.0
7.7824	532.675138358	5.0
7.7926	532.739060335	5.0
7.8029	532.803316393	3.0
7.8131	532.866660153	4.0
7.8234	532.930334972	1.0
