TL-DOS Lehrstuhlversuch
detector=R1407604
job_number=2015-11-03-008
irradiation_dose [mSv]=0.1

[BEGIN DATA]
time [sec] 	 temperature [K] 	 photoncount 
0.0	1.00000001179	0.0
0.0102	4.38053978267	0.0
0.0205	7.77224140913	0.0
0.0307	11.1093865402	0.0
0.041	14.4575502466	2.0
0.0512	17.7518577775	3.0
0.0614	21.0250563018	2.0
0.0717	24.3090622626	1.0
0.0819	27.5402440439	1.0
0.0922	30.7820945309	2.0
0.1024	33.9717989212	2.0
0.1126	37.1410645727	1.0
0.1229	40.3207944955	2.0
0.1331	43.4493775488	3.0
0.1434	46.5882905477	2.0
0.1536	49.6767132289	1.0
0.1638	52.7453461564	1.0
0.1741	55.8241110863	1.0
0.1843	58.8533531976	0.0
0.1946	61.892597251	3.0
0.2048	64.8829541904	0.0
0.215	67.8541497539	0.0
0.2253	70.8351556016	0.0
0.2355	73.7682111136	2.0
0.2458	76.710950979	0.0
0.256	79.606356028	0.0
0.2662	82.4832081265	1.0
0.2765	85.3695590062	0.0
0.2867	88.2094821026	0.0
0.297	91.058782048	0.0
0.3072	93.862250185	0.0
0.3174	96.6477544777	0.0
0.3277	99.4424559398	0.0
0.3379	102.192203826	0.0
0.3482	104.95103082	0.0
0.3584	107.66548129	0.0
0.3686	110.362538316	0.0
0.3789	113.068500476	0.0
0.3891	115.730936457	0.0
0.3994	118.402163261	1.0
0.4096	121.030422615	0.0
0.4198	123.641840813	0.0
0.4301	126.261881383	0.0
0.4403	128.839777848	0.0
0.4506	131.426186003	0.0
0.4608	133.97099104	0.0
0.471	136.499489674	1.0
0.4813	139.036336897	0.0
0.4915	141.532378203	0.0
0.5018	144.03666093	0.0
0.512	146.50066155	0.0
0.5222	148.948873539	0.0
0.5325	151.405169027	0.0
0.5427	153.821954296	0.0
0.553	156.246719299	0.0
0.5632	158.63248126	0.0
0.5734	161.002955921	0.0
0.5837	163.381257409	0.0
0.5939	165.721303233	0.0
0.6042	168.069075414	0.0
0.6144	170.379083004	0.0
0.6246	172.674288708	0.0
0.6349	174.977072715	0.0
0.6451	177.24281578	0.0
0.6554	179.516039867	0.0
0.6656	181.752698492	0.0
0.6758	183.975025231	0.0
0.6861	186.204689641	0.0
0.6963	188.398489258	0.0
0.7066	190.599532355	0.0
0.7168	192.765171042	0.0
0.727	194.916932919	0.0
0.7373	197.075799476	1.0
0.7475	199.199940044	0.0
0.7578	201.331094092	0.0
0.768	203.427967916	0.0
0.7782	205.511405555	0.0
0.7885	207.601722281	0.0
0.7987	209.658415663	0.0
0.809	211.721899828	0.0
0.8192	213.752192257	0.0
0.8294	215.769475137	0.0
0.8397	217.793418676	0.0
0.8499	219.784806501	0.0
0.8602	221.782769484	0.0
0.8704	223.748594658	0.0
0.8806	225.701823371	0.0
0.8909	227.661501248	0.0
0.9011	229.589657144	0.0
0.9114	231.524179418	0.0
0.9216	233.427584346	0.0
0.9318	235.318792785	0.0
0.9421	237.216245609	0.0
0.9523	239.08317736	0.0
0.9626	240.95627334	0.0
0.9728	242.799240032	0.0
0.983	244.630397507	0.0
0.9933	246.467601091	0.0
1.0035	248.275252728	1.0
1.0138	250.088872864	0.0
1.024	251.873320398	0.0
1.0342	253.646333689	1.0
1.0445	255.425201109	0.0
1.0547	257.175454936	0.0
1.065	258.931487746	1.0
1.0752	260.659274262	0.0
1.0854	262.375989604	1.0
1.0957	264.09837319	0.0
1.1059	265.793051742	0.0
1.1162	267.493325778	0.0
1.1264	269.166250418	0.0
1.1366	270.828455421	0.0
1.1469	272.496148688	0.0
1.1571	274.137016629	0.0
1.1674	275.783302383	0.0
1.1776	277.403107158	0.0
1.1878	279.012532674	0.0
1.1981	280.627272186	0.0
1.2083	282.216038149	0.0
1.2186	283.810049894	1.0
1.2288	285.378421502	0.0
1.239	286.936743421	0.0
1.2493	288.500210603	0.0
1.2595	290.038528966	0.0
1.2698	291.581926543	1.0
1.28	293.100498127	0.0
1.2902	294.609339126	0.0
1.3005	296.123162012	0.0
1.3107	297.612634622	0.0
1.321	299.107025167	0.0
1.3312	300.577378011	0.0
1.3414	302.038309243	0.0
1.3517	303.504064174	1.0
1.3619	304.946242014	1.0
1.3722	306.393181634	0.0
1.3824	307.816846813	0.0
1.3926	309.231389542	0.0
1.4029	310.650602804	0.0
1.4131	312.046987612	0.0
1.4234	313.447982999	0.0
1.4336	314.826442973	0.0
1.4438	316.196070159	0.0
1.4541	317.570219576	1.0
1.4643	318.922265404	0.0
1.4746	320.278775413	0.0
1.4848	321.613465568	1.0
1.495	322.939603401	1.0
1.5053	324.270119871	0.0
1.5155	325.579234601	0.0
1.5258	326.892671762	0.0
1.536	328.184981908	1.0
1.5462	329.469011291	0.0
1.5565	330.757280278	0.0
1.5667	332.024827088	0.0
1.577	333.29655908	1.0
1.5872	334.547834898	1.0
1.5974	335.791092888	0.0
1.6077	337.038455863	0.0
1.6179	338.265754646	0.0
1.6282	339.497105721	2.0
1.6384	340.70865016	1.0
1.6486	341.912431358	3.0
1.6589	343.120187198	3.0
1.6691	344.308515938	0.0
1.6794	345.500768298	0.0
1.6896	346.673842937	1.0
1.6998	347.839400839	2.0
1.7101	349.008807176	1.0
1.7203	350.159403277	1.0
1.7306	351.313798412	2.0
1.7408	352.44962477	1.0
1.751	353.578173068	1.0
1.7613	354.710447603	1.0
1.7715	355.824509178	1.0
1.7818	356.942249157	2.0
1.792	358.042009967	4.0
1.8022	359.134723816	1.0
1.8125	360.231045584	2.0
1.8227	361.309732701	2.0
1.833	362.391981424	3.0
1.8432	363.456821865	4.0
1.8534	364.514839105	2.0
1.8637	365.576349703	1.0
1.8739	366.620785598	3.0
1.8842	367.668670008	3.0
1.8944	368.699698896	5.0
1.9046	369.724121237	6.0
1.9149	370.751926013	1.0
1.9251	371.763198254	1.0
1.9354	372.777809511	4.0
1.9456	373.776100453	3.0
1.9558	374.767994625	5.0
1.9661	375.76316383	4.0
1.9763	376.742325453	7.0
1.9866	377.724720068	4.0
1.9968	378.691312583	5.0
2.007	379.651711443	7.0
2.0173	380.615281344	2.0
2.0275	381.563351946	9.0
2.0378	382.514552885	3.0
2.048	383.450453484	10.0
2.0582	384.380357092	3.0
2.0685	385.313331052	9.0
2.0787	386.231297859	6.0
2.089	387.152295605	4.0
2.0992	388.058478838	8.0
2.1094	388.9588555	7.0
2.1197	389.862205024	12.0
2.1299	390.75102391	9.0
2.1402	391.642777496	13.0
2.1504	392.52018697	6.0
2.1606	393.391974247	5.0
2.1709	394.266639989	7.0
2.1811	395.127236481	12.0
2.1914	395.990674488	18.0
2.2016	396.840223847	11.0
2.2118	397.684329529	6.0
2.2221	398.531222277	8.0
2.2323	399.364492512	16.0
2.2426	400.200514035	12.0
2.2528	401.023087913	12.0
2.263	401.840390965	12.0
2.2733	402.660392586	21.0
2.2835	403.467204246	21.0
2.2938	404.276679833	11.0
2.304	405.073134773	17.0
2.3142	405.864486252	16.0
2.3245	406.658450612	16.0
2.3347	407.439643827	19.0
2.345	408.223416384	18.0
2.3552	408.994581734	20.0
2.3654	409.76080567	18.0
2.3757	410.529559523	19.0
2.3859	411.285947749	11.0
2.3962	412.044833415	21.0
2.4064	412.791512187	23.0
2.4166	413.533406449	17.0
2.4269	414.277750295	19.0
2.4371	415.010121156	20.0
2.4474	415.744910158	11.0
2.4576	416.467879867	18.0
2.4678	417.186216987	19.0
2.4781	417.90692591	9.0
2.4883	418.616042024	15.0
2.4986	419.327499494	22.0
2.5088	420.027512967	21.0
2.519	420.723040948	21.0
2.5293	421.420865421	14.0
2.5395	422.107465187	18.0
2.5498	422.796331966	6.0
2.56	423.474118125	10.0
2.5702	424.147561219	20.0
2.5805	424.823227884	17.0
2.5907	425.488026258	16.0
2.601	426.15501966	15.0
2.6112	426.811284282	18.0
2.6214	427.463343743	10.0
2.6317	428.117556172	12.0
2.6419	428.761245405	15.0
2.6522	429.40705997	8.0
2.6624	430.042486422	10.0
2.6726	430.673841238	13.0
2.6829	431.307280659	14.0
2.6931	431.930531025	14.0
2.7034	432.555839237	12.0
2.7136	433.171089187	18.0
2.7238	433.782396787	17.0
2.7341	434.3957228	5.0
2.7443	434.999183287	12.0
2.7546	435.604636279	15.0
2.7648	436.200350385	12.0
2.775	436.792247321	13.0
2.7853	437.38609858	11.0
2.7955	437.970397571	10.0
2.8058	438.556625799	15.0
2.816	439.133424377	7.0
2.8262	439.70652699	15.0
2.8365	440.281521872	16.0
2.8467	440.847267796	14.0
2.857	441.414881698	10.0
2.8672	441.973365367	12.0
2.8774	442.528270428	15.0
2.8877	443.085007673	10.0
2.8979	443.632789639	14.0
2.9082	444.18238027	21.0
2.9184	444.723130578	13.0
2.9286	445.260415908	11.0
2.9389	445.799475245	10.0
2.9491	446.329863658	14.0
2.9594	446.862003306	14.0
2.9696	447.385583334	18.0
2.9798	447.905808407	11.0
2.9901	448.427751158	9.0
3.0003	448.94129831	19.0
3.0106	449.45654109	18.0
3.0208	449.963496042	17.0
3.031	450.467202567	20.0
3.0413	450.972572229	19.0
3.0515	451.469812875	15.0
3.0618	451.968695308	15.0
3.072	452.459553074	21.0
3.0822	452.94726556	12.0
3.0925	453.436588374	17.0
3.1027	453.918040289	21.0
3.113	454.401081861	20.0
3.1232	454.87635357	14.0
3.1334	455.348579871	19.0
3.1437	455.822365367	14.0
3.1539	456.288529886	18.0
3.1642	456.756233587	18.0
3.1744	457.216414139	30.0
3.1846	457.673645982	23.0
3.1949	458.132387511	20.0
3.2051	458.583750052	13.0
3.2154	459.036602899	25.0
3.2256	459.482171479	24.0
3.2358	459.924884979	22.0
3.2461	460.369060229	12.0
3.2563	460.806090792	19.0
3.2666	461.244564342	19.0
3.2768	461.675984918	18.0
3.287	462.104641072	25.0
3.2973	462.534712561	13.0
3.3075	462.957866226	16.0
3.3178	463.382417059	11.0
3.328	463.80013887	12.0
3.3382	464.215184035	18.0
3.3485	464.631599596	14.0
3.3587	465.041316992	11.0
3.369	465.452387192	29.0
3.3792	465.85684521	17.0
3.3894	466.258711573	21.0
3.3997	466.661904817	22.0
3.4099	467.058612582	22.0
3.4202	467.456630196	11.0
3.4304	467.848245582	18.0
3.4406	468.237351605	19.0
3.4509	468.627742377	15.0
3.4611	469.011853602	15.0
3.4714	469.397233084	17.0
3.4816	469.776413626	16.0
3.4918	470.153164485	23.0
3.5021	470.531159298	17.0
3.5123	470.903073956	18.0
3.5226	471.276216601	19.0
3.5328	471.643357139	24.0
3.543	472.008145143	16.0
3.5533	472.374137603	19.0
3.5635	472.734242968	19.0
3.5738	473.095537329	13.0
3.584	473.451020166	12.0
3.5942	473.804225167	12.0
3.6045	474.15859638	8.0
3.6147	474.50726743	18.0
3.625	474.857089721	20.0
3.6352	475.20128502	13.0
3.6454	475.543274811	13.0
3.6557	475.886393783	17.0
3.6659	476.223993588	14.0
3.6762	476.562708079	21.0
3.6864	476.89597425	16.0
3.6966	477.227104943	18.0
3.7069	477.559328963	30.0
3.7171	477.886209065	19.0
3.7274	478.214168458	13.0
3.7376	478.536852529	15.0
3.7478	478.857468932	15.0
3.7581	479.179143944	15.0
3.7683	479.495644721	13.0
3.7786	479.81319052	5.0
3.7888	480.125628503	22.0
3.799	480.43606447	16.0
3.8093	480.747525434	10.0
3.8195	481.053976459	14.0
3.8298	481.361439322	11.0
3.84	481.663956558	17.0
3.8502	481.964535347	14.0
3.8605	482.266106586	16.0
3.8707	482.562826965	21.0
3.881	482.860527054	11.0
3.8912	483.153438552	13.0
3.9014	483.444473154	13.0
3.9117	483.736468694	18.0
3.9219	484.023767401	11.0
3.9322	484.312014711	14.0
3.9424	484.595625479	16.0
3.9526	484.877418949	16.0
3.9629	485.160142844	12.0
3.9731	485.438319043	10.0
3.9834	485.717413724	12.0
3.9936	485.992019086	11.0
4.0038	486.264864854	11.0
4.0141	486.538611503	14.0
4.0243	486.807954858	14.0
4.0346	487.078187531	13.0
4.0448	487.344073433	17.0
4.055	487.608255613	14.0
4.0653	487.873310068	13.0
4.0755	488.134101046	17.0
4.0858	488.395753103	21.0
4.096	488.653196411	14.0
4.1062	488.908990095	11.0
4.1165	489.165628357	13.0
4.1267	489.418138519	19.0
4.137	489.671482418	18.0
4.1472	489.920751208	13.0
4.1574	490.168422753	15.0
4.1677	490.416912058	15.0
4.1779	490.661404342	9.0
4.1882	490.90670389	13.0
4.1984	491.148057724	13.0
4.2086	491.38786503	14.0
4.2189	491.628464131	17.0
4.2291	491.865193126	7.0
4.2394	492.102703752	21.0
4.2496	492.336393951	14.0
4.2598	492.568586729	15.0
4.2701	492.80154616	12.0
4.2803	493.030758372	10.0
4.2906	493.260727395	13.0
4.3008	493.486997301	19.0
4.311	493.711817333	9.0
4.3213	493.937379674	12.0
4.3315	494.15931378	15.0
4.3418	494.381980668	16.0
4.352	494.601065895	14.0
4.3622	494.818747284	18.0
4.3725	495.037147414	16.0
4.3827	495.252034514	14.0
4.393	495.467631128	9.0
4.4032	495.679759809	12.0
4.4134	495.890529227	11.0
4.4237	496.101994564	22.0
4.4339	496.31005842	16.0
4.4442	496.518809261	17.0
4.4544	496.724202284	18.0
4.4646	496.928279206	13.0
4.4749	497.133029948	8.0
4.4851	497.334487216	10.0
4.4954	497.536609655	16.0
4.5056	497.735480897	13.0
4.5158	497.933077826	13.0
4.5261	498.131327181	15.0
4.5363	498.326387638	13.0
4.5466	498.522092145	13.0
4.5568	498.714648688	14.0
4.567	498.905971383	12.0
4.5773	499.097925787	10.0
4.5875	499.286792548	9.0
4.5978	499.47628291	19.0
4.608	499.662725264	15.0
4.6182	499.847972948	11.0
4.6285	500.033832282	11.0
4.6387	500.216702015	18.0
4.649	500.400175547	9.0
4.6592	500.580697854	9.0
4.6694	500.760063425	12.0
4.6797	500.940021224	12.0
4.6899	501.117084351	21.0
4.7002	501.294732103	6.0
4.7104	501.469522341	13.0
4.7206	501.643192572	10.0
4.7309	501.817436226	10.0
4.7411	501.988877121	17.0
4.7514	502.160884079	9.0
4.7616	502.330124256	13.0
4.7718	502.498279988	13.0
4.7821	502.666990937	16.0
4.7923	502.832988122	11.0
4.8026	502.999533395	14.0
4.8128	503.16339974	11.0
4.823	503.326216075	11.0
4.8333	503.489569997	13.0
4.8435	503.650296324	11.0
4.8538	503.811553336	9.0
4.864	503.970216483	14.0
4.8742	504.127862961	13.0
4.8845	504.286029955	11.0
4.8947	504.441652788	5.0
4.905	504.597789456	9.0
4.9152	504.751414621	15.0
4.9254	504.904055398	8.0
4.9357	505.057200164	8.0
4.9459	505.207881553	7.0
4.9562	505.35906046	12.0
4.9664	505.507807612	11.0
4.9766	505.655601633	8.0
4.9869	505.803883641	7.0
4.9971	505.949780489	10.0
5.0074	506.096159059	5.0
5.0176	506.240183088	6.0
5.0278	506.383284251	8.0
5.0381	506.526857905	7.0
5.0483	506.668122135	5.0
5.0586	506.809852791	5.0
5.0688	506.949303669	9.0
5.079	507.087860985	4.0
5.0893	507.226875788	5.0
5.0995	507.363654499	8.0
5.1098	507.500884825	5.0
5.12	507.635907761	5.0
5.1302	507.770065509	10.0
5.1405	507.904666217	5.0
5.1507	508.037101835	10.0
5.161	508.169974729	5.0
5.1712	508.300710323	11.0
5.1814	508.430608201	6.0
5.1917	508.560934974	9.0
5.2019	508.689165404	10.0
5.2122	508.817819225	6.0
5.2224	508.944403613	4.0
5.2326	509.070176882	3.0
5.2429	509.19636543	6.0
5.2531	509.320524198	8.0
5.2634	509.445092914	6.0
5.2736	509.567657906	11.0
5.2838	509.689437535	8.0
5.2941	509.811619256	4.0
5.3043	509.931835649	6.0
5.3146	510.052448972	4.0
5.3248	510.171122195	3.0
5.335	510.289034994	4.0
5.3453	510.407337116	5.0
5.3555	510.523736314	3.0
5.3658	510.640519839	2.0
5.376	510.755424868	4.0
5.3862	510.869593617	5.0
5.3965	510.984139328	1.0
5.4067	511.096842539	8.0
5.417	511.209917872	7.0
5.4272	511.321174356	7.0
5.4374	511.43171794	4.0
5.4477	511.542626516	3.0
5.4579	511.651751096	3.0
5.4682	511.761235983	1.0
5.4784	511.868959774	5.0
5.4886	511.975993301	2.0
5.4989	512.083380231	2.0
5.5091	512.189039811	1.0
5.5194	512.295048258	2.0
5.5296	512.399351529	2.0
5.5398	512.502986453	2.0
5.5501	512.606963558	3.0
5.5603	512.709268162	2.0
5.5706	512.811910555	3.0
5.5808	512.912901916	2.0
5.591	513.013246152	1.0
5.6013	513.113921704	3.0
5.6115	513.212977861	1.0
5.6218	513.312361082	4.0
5.632	513.410145695	0.0
5.6422	513.507303731	0.0
5.6525	513.604782563	0.0
5.6627	513.70069342	1.0
5.673	513.796920956	0.0
5.6832	513.891600644	2.0
5.6934	513.98567365	3.0
5.7037	514.080057267	1.0
5.7139	514.172922696	1.0
5.7242	514.266094748	0.0
5.7344	514.357768101	0.0
5.7446	514.448854036	1.0
5.7549	514.540240718	2.0
5.7651	514.63015742	2.0
5.7754	514.720371008	2.0
5.7856	514.809133485	0.0
5.7958	514.897327196	3.0
5.8061	514.985812105	0.0
5.8163	515.072873709	2.0
5.8266	515.160222773	2.0
5.8368	515.246166802	1.0
5.847	515.331560125	2.0
5.8573	515.4172354	2.0
5.8675	515.501532564	1.0
5.8778	515.586108059	1.0
5.888	515.669323133	2.0
5.8982	515.752004989	1.0
5.9085	515.834959843	1.0
5.9187	515.916580344	2.0
5.929	515.99847034	0.0
5.9392	516.079043111	1.0
5.9494	516.159099595	0.0
5.9597	516.239420409	2.0
5.9699	516.318449239	1.0
5.9802	516.397739007	2.0
5.9904	516.475753376	0.0
6.0006	516.55326785	0.0
6.0109	516.631038262	1.0
6.0211	516.707557714	1.0
6.0314	516.784329818	0.0
6.0416	516.859867021	0.0
6.0518	516.934920202	3.0
6.0621	517.010221193	4.0
6.0723	517.084310947	2.0
6.0826	517.158645329	1.0
6.0928	517.231784022	0.0
6.103	517.304454063	0.0
6.1133	517.377364045	2.0
6.1235	517.449101249	0.0
6.1338	517.521075315	1.0
6.144	517.591891657	0.0
6.1542	517.662254228	0.0
6.1645	517.732849121	2.0
6.1747	517.802308476	1.0
6.185	517.871997171	1.0
6.1952	517.940564904	0.0
6.2054	518.008693273	0.0
6.2157	518.077046589	1.0
6.2259	518.144300422	2.0
6.2362	518.211776313	0.0
6.2464	518.278166836	0.0
6.2566	518.344131946	1.0
6.2669	518.410314859	2.0
6.2771	518.475433202	1.0
6.2874	518.540766552	2.0
6.2976	518.605048996	1.0
6.3078	518.668919537	0.0
6.3181	518.733000964	0.0
6.3283	518.796051624	1.0
6.3386	518.859310464	1.0
6.3488	518.921551768	1.0
6.359	518.983394246	0.0
6.3693	519.045440916	1.0
6.3795	519.106489547	0.0
6.3898	519.167739749	1.0
6.4	519.228004723	1.0
6.4102	519.287883537	1.0
6.4205	519.347960057	0.0
6.4307	519.40707023	0.0
6.441	519.466375573	0.0
6.4512	519.524726972	1.0
6.4614	519.582704471	0.0
6.4717	519.640873401	0.0
6.4819	519.698106666	0.0
6.4922	519.755528905	1.0
6.5024	519.812027489	2.0
6.5126	519.868164047	2.0
6.5229	519.924485956	1.0
6.5331	519.979901912	5.0
6.5434	520.035500839	2.0
6.5536	520.090205441	1.0
6.5638	520.144559512	0.0
6.5741	520.199093049	1.0
6.5843	520.252749398	1.0
6.5946	520.30658291	0.0
6.6048	520.359550494	1.0
6.615	520.412178677	0.0
6.6253	520.464980627	0.0
6.6355	520.516933242	0.0
6.6458	520.569057395	1.0
6.656	520.620343115	1.0
6.6662	520.671300211	1.0
6.6765	520.722425557	0.0
6.6867	520.772728537	1.0
6.697	520.823197608	0.0
6.7072	520.872854868	0.0
6.7174	520.922193939	0.0
6.7277	520.971695918	0.0
6.7379	521.020401642	0.0
6.7482	521.069268184	0.0
6.7584	521.117348693	0.0
6.7686	521.165121115	1.0
6.7789	521.213051272	0.0
6.7891	521.260210459	0.0
6.7994	521.307525356	0.0
6.8096	521.354079179	0.0
6.8198	521.400334699	1.0
6.8301	521.446742944	0.0
6.8403	521.4924047	1.0
6.8506	521.538217221	1.0
6.8608	521.583292835	0.0
6.871	521.628079617	0.0
6.8813	521.673014276	1.0
6.8915	521.717226148	1.0
6.9018	521.761583998	1.0
6.912	521.80522834	1.0
6.9222	521.848593021	0.0
6.9325	521.892100883	2.0
6.9427	521.934908909	0.0
6.953	521.977858278	0.0
6.9632	522.020116794	2.0
6.9734	522.06210453	1.0
6.9837	522.1042309	0.0
6.9939	522.145679656	0.0
7.0042	522.187265267	2.0
7.0144	522.228181961	0.0
7.0246	522.268836473	0.0
7.0349	522.309625217	2.0
7.0451	522.349757863	1.0
7.0554	522.390023019	0.0
7.0656	522.429640498	0.0
7.0758	522.46900412	0.0
7.0861	522.508497712	0.0
7.0963	522.547356038	0.0
7.1066	522.586342667	1.0
7.1168	522.624702184	1.0
7.127	522.662815904	1.0
7.1373	522.701055469	0.0
7.1475	522.738679938	0.0
7.1578	522.776428636	0.0
7.168	522.813570136	1.0
7.1782	522.850473643	0.0
7.1885	522.887498998	0.0
7.1987	522.923928789	1.0
7.209	522.960478864	0.0
7.2192	522.996441021	1.0
7.2294	523.032172742	1.0
7.2397	523.068022443	1.0
7.2499	523.10329549	0.0
7.2602	523.138685002	1.0
7.2704	523.173505263	0.0
7.2806	523.208102406	1.0
7.2909	523.242813782	0.0
7.3011	523.276966815	0.0
7.3114	523.311232614	0.0
7.3216	523.344947238	0.0
7.3318	523.378445829	1.0
7.3421	523.412055025	2.0
7.3523	523.445123607	0.0
7.3626	523.478301375	0.0
7.3728	523.510945469	0.0
7.383	523.543380389	3.0
7.3933	523.575922402	0.0
7.4035	523.607940968	1.0
7.4138	523.640065252	0.0
7.424	523.671672808	0.0
7.4342	523.703077832	0.0
7.4445	523.734586549	1.0
7.4547	523.765588439	0.0
7.465	523.796692691	1.0
7.4752	523.827296622	1.0
7.4854	523.857704451	1.0
7.4957	523.888212681	2.0
7.5059	523.918230178	1.0
7.5162	523.948346786	1.0
7.5264	523.97797896	0.0
7.5366	524.007421259	0.0
7.5469	524.03696077	0.0
7.5571	524.06602513	2.0
7.5674	524.095185455	0.0
7.5776	524.123876727	1.0
7.5878	524.152384154	1.0
7.5981	524.180985707	1.0
7.6083	524.209127195	2.0
7.6186	524.237361601	0.0
7.6288	524.265141848	0.0
7.639	524.292744087	1.0
7.6493	524.320437463	0.0
7.6595	524.347685383	1.0
7.6698	524.375023271	0.0
7.68	524.40192142	0.0
7.6902	524.428647214	0.0
7.7005	524.45546125	0.0
7.7107	524.481843976	2.0
7.721	524.508313811	1.0
7.7312	524.534357872	0.0
7.7414	524.56023505	0.0
7.7517	524.586197669	1.0
7.7619	524.611742672	0.0
7.7722	524.637372019	0.0
7.7824	524.66258911	0.0
7.7926	524.687644618	0.0
7.8029	524.712782854	1.0
7.8131	524.737516734	0.0
7.8234	524.76233228	0.0
7.8336	524.786748661	1.0
7.8438	524.811008589	1.0
7.8541	524.835348618	0.0
7.8643	524.859297131	0.0
7.8746	524.883324716	1.0
7.8848	524.906965812	0.0
7.895	524.930455421	2.0
7.9053	524.954022589	0.0
7.9155	524.977210672	0.0
7.9258	525.000475317	1.0
7.936	525.023365743	1.0
7.9462	525.046109495	0.0
7.9565	525.068928341	1.0
7.9667	525.09138014	0.0
7.977	525.11390607	1.0
7.9872	525.136069664	1.0
7.9974	525.15809124	0.0
8.0077	525.180185526	1.0
8.0179	525.20192442	1.0
8.0282	525.223735091	0.0
8.0384	525.245194931	0.0
8.0486	525.266517263	1.0
8.0589	525.287909996	0.0
8.0691	525.308958622	1.0
8.0794	525.330076745	2.0
8.0896	525.350855177	1.0
