TL-DOS Lehrstuhlversuch
detector=R1407205
job_number=2015-10-27-004
irradiation_dose [mSv]=0.4

[BEGIN DATA]
time [sec] 	 temperature [K] 	 photoncount 
0.0	104.865937401	0.0
0.0102	106.870798628	0.0
0.0205	108.886208027	0.0
0.0307	110.873071939	1.0
0.041	112.870389332	2.0
0.0512	114.839417488	2.0
0.0614	116.799631008	2.0
0.0717	118.770157793	3.0
0.0819	120.712774793	1.0
0.0922	122.665612477	1.0
0.1024	124.590790918	0.0
0.1126	126.507351022	0.0
0.1229	128.433994718	0.0
0.1331	130.333350171	2.0
0.1434	132.242698698	0.0
0.1536	134.125003944	0.0
0.1638	135.998882782	1.0
0.1741	137.882620653	0.0
0.1843	139.739677983	1.0
0.1946	141.606505844	2.0
0.2048	143.44689267	2.0
0.215	145.279040742	1.0
0.2253	147.120828289	0.0
0.2355	148.936529463	1.0
0.2458	150.761783581	0.0
0.256	152.561185499	0.0
0.2662	154.352532137	0.0
0.2765	156.153303582	0.0
0.2867	157.928569591	0.0
0.297	159.713175801	1.0
0.3072	161.472505534	0.0
0.3174	163.223959375	0.0
0.3277	164.984628136	0.0
0.3379	166.720359459	0.0
0.3482	168.46522298	0.0
0.3584	170.185372923	0.0
0.3686	171.89782237	0.0
0.3789	173.619281521	0.0
0.3891	175.316358585	0.0
0.3994	177.022364476	1.0
0.4096	178.704207153	0.0
0.4198	180.378520822	0.0
0.4301	182.061643552	0.0
0.4403	183.720927177	0.0
0.4506	185.388940786	0.0
0.4608	187.033329289	0.0
0.471	188.670356453	0.0
0.4813	190.315996503	0.0
0.4915	191.938328338	0.0
0.5018	193.569195743	0.0
0.512	195.176964167	0.0
0.5222	196.777535186	0.0
0.5325	198.386527285	0.0
0.5427	199.972730236	0.0
0.553	201.567278672	0.0
0.5632	203.139242536	0.0
0.5734	204.704169279	0.0
0.5837	206.277329566	0.0
0.5939	207.828208215	0.0
0.6042	209.387246496	0.0
0.6144	210.924203157	0.0
0.6246	212.454279412	0.0
0.6349	213.992405852	0.0
0.6451	215.50874686	0.0
0.6554	217.033065788	0.0
0.6656	218.535794847	0.0
0.6758	220.031796724	0.0
0.6861	221.535669512	0.0
0.6963	223.018242023	0.0
0.7066	224.508614788	1.0
0.7168	225.977878484	0.0
0.727	227.440564811	0.0
0.7373	228.910946766	0.0
0.7475	230.360502794	0.0
0.7578	231.817685368	0.0
0.768	233.254228966	1.0
0.7782	234.684341671	0.0
0.7885	236.121978625	0.0
0.7987	237.539253439	0.0
0.809	238.963984957	0.0
0.8192	240.368537125	1.0
0.8294	241.766801614	0.0
0.8397	243.172422788	1.0
0.8499	244.558135282	1.0
0.8602	245.951138421	0.0
0.8704	247.324411598	0.0
0.8806	248.691537122	0.0
0.8909	250.065855499	0.0
0.9011	251.420708557	0.0
0.9114	252.7826899	0.0
0.9216	254.125380661	0.0
0.9318	255.462060675	1.0
0.9421	256.80577336	1.0
0.9523	258.130454214	0.0
0.9626	259.462104607	0.0
0.9728	260.774894014	1.0
0.983	262.081806532	0.0
0.9933	263.395595106	1.0
1.0035	264.690775681	0.0
1.0138	265.992770586	1.0
1.024	267.276324535	0.0
1.0342	268.55413247	0.0
1.0445	269.838663334	0.0
1.0547	271.105000594	0.0
1.065	272.378000431	0.0
1.0752	273.632969986	0.0
1.0854	274.882321491	0.0
1.0957	276.138246205	0.0
1.1059	277.376382483	0.0
1.1162	278.621032964	0.0
1.1264	279.848054692	1.0
1.1366	281.069583483	1.0
1.1469	282.297539099	2.0
1.1571	283.508102423	1.0
1.1674	284.72503488	1.0
1.1776	285.924731172	0.0
1.1878	287.119056852	0.0
1.1981	288.319666235	0.0
1.2083	289.503270647	0.0
1.2186	290.693102353	0.0
1.2288	291.866081738	0.0
1.239	293.033810115	0.0
1.2493	294.207682257	2.0
1.2595	295.364928124	0.0
1.2698	296.528262605	0.0
1.28	297.675120063	1.0
1.2902	298.816843449	0.0
1.3005	299.964573781	0.0
1.3107	301.096048101	0.0
1.321	302.233475444	1.0
1.3312	303.354792701	1.0
1.3414	304.471090222	0.0
1.3517	305.593260916	1.0
1.3619	306.699537614	0.0
1.3722	307.811634763	0.0
1.3824	308.907980593	0.0
1.3926	309.999418475	0.0
1.4029	311.096598737	0.0
1.4131	312.178238957	1.0
1.4234	313.265570008	2.0
1.4336	314.337500519	1.0
1.4438	315.40463238	0.0
1.4541	316.477378738	0.0
1.4643	317.534931129	1.0
1.4746	318.598047616	2.0
1.4848	319.64610653	2.0
1.495	320.689473657	0.0
1.5053	321.73833025	0.0
1.5155	322.772331239	0.0
1.5258	323.811772415	1.0
1.536	324.836491345	0.0
1.5462	325.856622974	0.0
1.5565	326.882121818	2.0
1.5667	327.893095891	1.0
1.577	328.909388998	3.0
1.5872	329.911287719	1.0
1.5974	330.908701297	2.0
1.6077	331.911362564	1.0
1.6179	332.899822522	5.0
1.6282	333.893483061	3.0
1.6384	334.873069773	2.0
1.6486	335.848271226	2.0
1.6589	336.828603502	2.0
1.6691	337.795050729	4.0
1.6794	338.766582721	2.0
1.6896	339.724354307	3.0
1.6998	340.677838291	4.0
1.7101	341.636338838	4.0
1.7203	342.58126355	2.0
1.7306	343.531159793	6.0
1.7408	344.467602068	2.0
1.751	345.399852227	6.0
1.7613	346.33700723	1.0
1.7715	347.260888729	3.0
1.7818	348.189631043	4.0
1.792	349.105219008	5.0
1.8022	350.016708211	0.0
1.8125	350.932993031	2.0
1.8227	351.836299943	5.0
1.833	352.744359421	5.0
1.8432	353.639557493	6.0
1.8534	354.530748083	8.0
1.8637	355.426627492	5.0
1.8739	356.309818008	4.0
1.8842	357.197655252	7.0
1.8944	358.072917509	6.0
1.9046	358.94426153	8.0
1.9149	359.82018995	13.0
1.9251	360.683712056	5.0
1.9354	361.551777409	11.0
1.9456	362.407547816	12.0
1.9558	363.259487246	13.0
1.9661	364.115908981	15.0
1.9763	364.960200688	5.0
1.9866	365.808934464	9.0
1.9968	366.6456471	15.0
2.007	367.478614072	8.0
2.0173	368.315963531	15.0
2.0275	369.141453094	12.0
2.0378	369.971285802	13.0
2.048	370.789365078	13.0
2.0582	371.603782105	23.0
2.0685	372.422484022	18.0
2.0787	373.229590159	27.0
2.089	374.040942722	20.0
2.0992	374.840803597	22.0
2.1094	375.637083781	20.0
2.1197	376.437553432	21.0
2.1299	377.226685537	27.0
2.1402	378.019969501	30.0
2.1504	378.802017695	31.0
2.1606	379.580564938	21.0
2.1709	380.36320835	32.0
2.1811	381.134766701	19.0
2.1914	381.910384449	36.0
2.2016	382.675016645	29.0
2.2118	383.436225855	23.0
2.2221	384.201440014	37.0
2.2323	384.955815972	34.0
2.2426	385.714160927	37.0
2.2528	386.461764974	46.0
2.263	387.206022265	37.0
2.2733	387.954195314	34.0
2.2835	388.691771528	42.0
2.2938	389.433228349	39.0
2.304	390.164183459	47.0
2.3142	390.891866345	43.0
2.3245	391.623377787	42.0
2.3347	392.344528381	46.0
2.345	393.069473162	50.0
2.3552	393.784150104	48.0
2.3654	394.495627692	62.0
2.3757	395.210848575	54.0
2.3859	395.915939344	59.0
2.3962	396.624739804	55.0
2.4064	397.323501087	53.0
2.4166	398.019134265	55.0
2.4269	398.718427376	68.0
2.4371	399.407815967	58.0
2.4474	400.100831637	57.0
2.4576	400.784031698	78.0
2.4678	401.464173316	67.0
2.4781	402.147893362	61.0
2.4883	402.821929459	57.0
2.4986	403.49951186	62.0
2.5088	404.167497244	59.0
2.519	404.832492296	59.0
2.5293	405.500986084	45.0
2.5395	406.160011583	59.0
2.5498	406.82250441	60.0
2.56	407.475613943	46.0
2.5702	408.125799738	61.0
2.5805	408.779406354	59.0
2.5907	409.423755536	60.0
2.601	410.071494831	46.0
2.6112	410.710059794	63.0
2.6214	411.34576613	56.0
2.6317	411.984817106	50.0
2.6419	412.614816809	48.0
2.6522	413.248131128	61.0
2.6624	413.872475426	38.0
2.6726	414.494024757	42.0
2.6829	415.118844243	47.0
2.6931	415.734814026	41.0
2.7034	416.354024609	63.0
2.7136	416.964464931	46.0
2.7238	417.572172529	37.0
2.7341	418.183077458	40.0
2.7443	418.785329764	36.0
2.7546	419.390750697	34.0
2.7648	419.987596681	24.0
2.775	420.581770798	45.0
2.7853	421.179071042	42.0
2.7955	421.767911355	41.0
2.8058	422.359849731	49.0
2.816	422.943404119	30.0
2.8262	423.524346142	46.0
2.8365	424.108344674	40.0
2.8467	424.684071674	37.0
2.857	425.262827746	42.0
2.8672	425.833386538	39.0
2.8774	426.401391142	38.0
2.8877	426.972384188	47.0
2.8979	427.535289906	46.0
2.9082	428.101157239	51.0
2.9184	428.659009844	42.0
2.9286	429.214365142	52.0
2.9389	429.772642329	43.0
2.9491	430.323012292	58.0
2.9594	430.876277915	46.0
2.9696	431.421707296	53.0
2.9798	431.964694985	53.0
2.9901	432.510539493	53.0
3.0003	433.048652868	67.0
3.0106	433.589597418	41.0
3.0208	434.122880237	56.0
3.031	434.653775738	56.0
3.0413	435.187464439	63.0
3.0515	435.713594178	51.0
3.0618	436.242492042	67.0
3.072	436.763898799	70.0
3.0822	437.282971404	61.0
3.0925	437.804775004	57.0
3.1027	438.319187978	64.0
3.113	438.836307432	64.0
3.1232	439.346102604	63.0
3.1334	439.853615605	70.0
3.1437	440.363798783	47.0
3.1539	440.866755921	67.0
3.1642	441.372359267	56.0
3.1744	441.870801441	68.0
3.1846	442.367012267	72.0
3.1949	442.865833806	52.0
3.2051	443.357590228	90.0
3.2154	443.851933926	77.0
3.2256	444.33927593	73.0
3.2358	444.824436277	68.0
3.2461	445.312149197	83.0
3.2563	445.792954339	74.0
3.2666	446.276289139	74.0
3.2768	446.75277817	90.0
3.287	447.227134131	72.0
3.2973	447.703985818	67.0
3.3075	448.174083562	78.0
3.3178	448.646654629	70.0
3.328	449.112532381	73.0
3.3382	449.576324564	67.0
3.3485	450.042556896	78.0
3.3587	450.502185692	69.0
3.369	450.964232731	72.0
3.3792	451.419735514	80.0
3.3894	451.873199173	71.0
3.3997	452.329048639	70.0
3.4099	452.778441628	76.0
3.4202	453.230199007	76.0
3.4304	453.675557868	66.0
3.4406	454.118923016	82.0
3.4509	454.56462084	73.0
3.4611	455.004005971	75.0
3.4714	455.445702837	68.0
3.4816	455.881143679	63.0
3.4918	456.314635207	66.0
3.5021	456.750407463	74.0
3.5123	457.180007608	69.0
3.5226	457.611868007	71.0
3.5328	458.0376117	70.0
3.543	458.461449492	62.0
3.5533	458.887517219	71.0
3.5635	459.307550287	59.0
3.5738	459.729793274	57.0
3.584	460.146055773	55.0
3.5942	460.560454813	63.0
3.6045	460.97703413	54.0
3.6147	461.387713177	64.0
3.625	461.800552928	50.0
3.6352	462.207545376	54.0
3.6454	462.612715863	75.0
3.6557	463.020018073	68.0
3.6659	463.421551411	59.0
3.6762	463.825197335	80.0
3.6864	464.223126172	66.0
3.6966	464.619273624	59.0
3.7069	465.017505326	50.0
3.7171	465.410096627	55.0
3.7274	465.804753467	55.0
3.7376	466.193820539	51.0
3.7478	466.581145897	61.0
3.7581	466.970509088	56.0
3.7683	467.354357488	69.0
3.7786	467.740225429	53.0
3.7888	468.120628084	67.0
3.799	468.499327813	60.0
3.8093	468.880019993	70.0
3.8195	469.255320195	56.0
3.8298	469.632594963	71.0
3.84	470.004526156	56.0
3.8502	470.374792346	65.0
3.8605	470.747006616	63.0
3.8707	471.113948986	55.0
3.881	471.482821949	43.0
3.8912	471.846470336	76.0
3.9014	472.2084908	68.0
3.9117	472.57241596	70.0
3.9219	472.931186625	67.0
3.9322	473.291844888	52.0
3.9424	473.647394926	56.0
3.9526	474.001353293	54.0
3.9629	474.357173941	61.0
3.9731	474.707954881	69.0
3.9834	475.060581384	48.0
3.9936	475.408213421	50.0
4.0038	475.754289232	64.0
4.0141	476.102185852	63.0
4.0243	476.445154997	65.0
4.0346	476.789928605	58.0
4.0448	477.129818972	55.0
4.055	477.468187771	65.0
4.0653	477.808336828	53.0
4.0755	478.143668145	57.0
4.0858	478.480763739	48.0
4.096	478.813084841	59.0
4.1062	479.14391826	62.0
4.1165	479.476492292	61.0
4.1267	479.804355872	63.0
4.137	480.133944441	55.0
4.1472	480.458864843	70.0
4.1574	480.782330692	40.0
4.1677	481.107498392	53.0
4.1779	481.428060541	47.0
4.1882	481.750309262	61.0
4.1984	482.067993776	50.0
4.2086	482.384256131	48.0
4.2189	482.702182435	53.0
4.2291	483.015605753	46.0
4.2394	483.330678084	55.0
4.2496	483.641287852	75.0
4.2598	483.95050713	62.0
4.2701	484.261353303	57.0
4.2803	484.56779677	56.0
4.2906	484.875852527	58.0
4.3008	485.179545101	37.0
4.311	485.481878151	49.0
4.3213	485.785801865	54.0
4.3315	486.08542092	53.0
4.3418	486.38661636	48.0
4.352	486.683545784	57.0
4.3622	486.97914596	51.0
4.3725	487.276301377	51.0
4.3827	487.569247998	53.0
4.393	487.863735899	49.0
4.4032	488.154052786	46.0
4.4134	488.443070027	52.0
4.4237	488.733607875	52.0
4.4339	489.020030656	51.0
4.4442	489.307960392	51.0
4.4544	489.591812001	44.0
4.4646	489.874392909	39.0
4.4749	490.158460558	39.0
4.4851	490.438504782	41.0
4.4954	490.720022402	49.0
4.5056	490.997552715	38.0
4.5158	491.273840623	51.0
4.5261	491.551582164	42.0
4.5363	491.82538988	45.0
4.5466	492.10063818	50.0
4.5568	492.371987969	43.0
4.567	492.642123022	45.0
4.5773	492.913679335	42.0
4.5875	493.181389429	52.0
4.5978	493.450508025	50.0
4.608	493.715814929	49.0
4.6182	493.979934148	53.0
4.6285	494.245442977	41.0
4.6387	494.507191241	46.0
4.649	494.77031664	53.0
4.6592	495.029715231	48.0
4.6694	495.287952588	54.0
4.6797	495.547548609	42.0
4.6899	495.803467811	44.0
4.7002	496.060733479	57.0
4.7104	496.314355336	51.0
4.7206	496.566841818	46.0
4.7309	496.820656707	45.0
4.7411	497.070876658	50.0
4.7514	497.322413091	46.0
4.7616	497.570386859	47.0
4.7718	497.817250537	47.0
4.7821	498.065413037	40.0
4.7923	498.310060659	57.0
4.8026	498.555995445	49.0
4.8128	498.798446905	55.0
4.823	499.039812997	41.0
4.8333	499.282448987	57.0
4.8435	499.521648374	46.0
4.8538	499.76210626	39.0
4.864	499.999158393	59.0
4.8742	500.235149328	29.0
4.8845	500.472381881	53.0
4.8947	500.706254363	44.0
4.905	500.941357318	46.0
4.9152	501.173130365	40.0
4.9254	501.403865847	42.0
4.9357	501.635815297	35.0
4.9459	501.864479503	55.0
4.9562	502.09434678	46.0
4.9664	502.320958305	35.0
4.9766	502.546555371	39.0
4.9869	502.773339371	51.0
4.9971	502.996911288	32.0
5.0074	503.221659484	42.0
5.0176	503.443224433	46.0
5.0278	503.663797514	47.0
5.0381	503.885531096	44.0
5.0483	504.104124129	50.0
5.0586	504.323867244	43.0
5.0688	504.540498002	39.0
5.079	504.756158982	43.0
5.0893	504.972954618	45.0
5.0995	505.186679644	39.0
5.1098	505.401529141	46.0
5.12	505.613335591	39.0
5.1302	505.82419386	37.0
5.1405	506.036161517	44.0
5.1507	506.245126946	33.0
5.161	506.455191803	28.0
5.1712	506.662281383	28.0
5.1814	506.868443896	23.0
5.1917	507.075691092	30.0
5.2019	507.280002917	28.0
5.2122	507.485389688	32.0
5.2224	507.68786744	38.0
5.2326	507.88943877	36.0
5.2429	508.092070628	35.0
5.2531	508.291832486	36.0
5.2634	508.49264535	25.0
5.2736	508.690613977	31.0
5.2838	508.88769637	31.0
5.2941	509.085815672	27.0
5.3043	509.281128888	26.0
5.3146	509.477469705	24.0
5.3248	509.671029626	36.0
5.335	509.863723048	28.0
5.3453	510.057430287	21.0
5.3555	510.248393932	25.0
5.3658	510.440362292	26.0
5.376	510.629611687	21.0
5.3862	510.81801388	22.0
5.3965	511.007407312	24.0
5.4067	511.194118249	31.0
5.417	511.381811527	24.0
5.4272	511.56684639	29.0
5.4374	511.751052917	23.0
5.4477	511.93622861	25.0
5.4579	512.118781546	16.0
5.4682	512.302294946	20.0
5.4784	512.483209133	17.0
5.4886	512.663313432	15.0
5.4989	512.844365314	10.0
5.5091	513.022852845	10.0
5.5194	513.202279453	24.0
5.5296	513.379164731	18.0
5.5398	513.555258157	18.0
5.5501	513.732278062	17.0
5.5603	513.906790726	13.0
5.5706	514.082221552	15.0
5.5808	514.255167644	17.0
5.591	514.427339518	13.0
5.6013	514.600417239	19.0
5.6115	514.771043553	14.0
5.6218	514.942567583	12.0
5.632	515.111662213	12.0
5.6422	515.279999866	20.0
5.6525	515.449223194	8.0
5.6627	515.616049708	12.0
5.673	515.783753945	11.0
5.6832	515.949082884	15.0
5.6934	516.113671704	15.0
5.7037	516.279126475	13.0
5.7139	516.442237808	14.0
5.7242	516.606207318	6.0
5.7344	516.767854426	4.0
5.7446	516.928777899	8.0
5.7549	517.090548038	9.0
5.7651	517.250026926	11.0
5.7754	517.41034488	5.0
5.7856	517.568392152	4.0
5.7958	517.725731903	6.0
5.8061	517.883899465	13.0
5.8163	518.039826803	8.0
5.8266	518.19657452	7.0
5.8368	518.351102123	3.0
5.847	518.504937961	4.0
5.8573	518.659583175	8.0
5.8675	518.812038054	5.0
5.8778	518.965295043	8.0
5.888	519.116381358	3.0
5.8982	519.266791315	5.0
5.9085	519.417992622	5.0
5.9187	519.567052373	3.0
5.929	519.716896371	8.0
5.9392	519.864618036	8.0
5.9494	520.011678403	2.0
5.9597	520.1595125	2.0
5.9699	520.30525273	3.0
5.9802	520.451759744	1.0
5.9904	520.596191688	3.0
6.0006	520.739977062	5.0
6.0109	520.884518933	4.0
6.0211	521.027013569	2.0
6.0314	521.170257912	2.0
6.0416	521.311473396	3.0
6.0518	521.452056709	6.0
6.0621	521.593379673	1.0
6.0723	521.732700993	2.0
6.0826	521.872755323	1.0
6.0928	522.010825978	5.0
6.103	522.148278539	4.0
6.1133	522.286454279	1.0
6.1235	522.422672951	4.0
6.1338	522.55960831	3.0
6.144	522.694604169	1.0
6.1542	522.8289957	2.0
6.1645	522.964094305	4.0
6.1747	523.097279424	1.0
6.185	523.231165271	3.0
6.1952	523.363154809	2.0
6.2054	523.494553477	2.0
6.2157	523.626643473	2.0
6.2259	523.756862597	3.0
6.2362	523.887766842	1.0
6.2464	524.01681701	2.0
6.2566	524.145289466	3.0
6.2669	524.274437854	2.0
6.2771	524.401757034	1.0
6.2874	524.529746078	1.0
6.2976	524.655922333	4.0
6.3078	524.781533743	1.0
6.3181	524.907806032	5.0
6.3283	525.032289849	4.0
6.3386	525.157428612	2.0
6.3488	525.280794957	1.0
6.359	525.403609036	1.0
6.3693	525.527069275	2.0
6.3795	525.648780872	1.0
6.3898	525.771132829	2.0
6.4	525.89175184	1.0
6.4102	526.011830882	1.0
6.4205	526.132541697	0.0
6.4307	526.251542809	1.0
6.441	526.371170022	0.0
6.4512	526.48910288	4.0
6.4614	526.606507796	1.0
6.4717	526.724530413	1.0
6.4819	526.840881404	2.0
6.4922	526.957844551	4.0
6.5024	527.073151078	1.0
6.5126	527.187941418	0.0
6.5229	527.303335704	1.0
6.5331	527.41709559	1.0
6.5434	527.531454001	0.0
6.5536	527.644192683	1.0
6.5638	527.756426674	1.0
6.5741	527.869251161	0.0
6.5843	527.980477645	1.0
6.5946	528.092289326	1.0
6.6048	528.202517348	1.0
6.615	528.312251919	0.0
6.6253	528.422563836	1.0
6.6355	528.531313337	0.0
6.6458	528.640635002	0.0
6.656	528.748408277	4.0
6.6662	528.855699089	1.0
6.6765	528.96355439	0.0
6.6867	529.06988207	2.0
6.697	529.176769171	3.0
6.7072	529.282142364	1.0
6.7174	529.38704384	3.0
6.7277	529.492497233	2.0
6.7379	529.596457025	0.0
6.7482	529.70096378	2.0
6.7584	529.803990341	0.0
6.7686	529.906555689	2.0
6.7789	530.009660664	4.0
6.7891	530.1113053	1.0
6.7994	530.213484718	2.0
6.8096	530.314216907	2.0
6.8198	530.414498153	0.0
6.8301	530.515307009	1.0
6.8403	530.614688046	0.0
6.8506	530.714591957	2.0
6.8608	530.813080867	0.0
6.871	530.911128878	1.0
6.8813	531.009692748	0.0
6.8915	531.106860597	0.0
6.9018	531.204539675	0.0
6.912	531.300835265	4.0
6.9222	531.396699773	1.0
6.9325	531.493068653	0.0
6.9427	531.588072601	1.0
6.953	531.683576393	3.0
6.9632	531.777727506	2.0
6.9734	531.871457138	0.0
6.9837	531.965679909	1.0
6.9939	532.058568145	2.0
7.0042	532.151945094	2.0
7.0144	532.243999488	0.0
7.0246	532.335641787	0.0
7.0349	532.427766243	2.0
7.0451	532.518585884	0.0
7.0554	532.609883354	2.0
7.0656	532.699887721	1.0
7.0758	532.789489171	1.0
7.0861	532.879562041	0.0
7.0963	532.968359154	1.0
7.1066	533.057623454	1.0
7.1168	533.145623449	2.0
7.127	533.233229499	2.0
7.1373	533.321296471	2.0
7.1475	533.408116096	1.0
7.1578	533.495392505	1.0
7.168	533.581432765	2.0
7.1782	533.667087853	1.0
7.1885	533.753193597	2.0
7.1987	533.838079773	0.0
7.209	533.923412561	2.0
7.2192	534.007536727	1.0
7.2294	534.0912843	0.0
7.2397	534.175472493	1.0
7.2499	534.258468277	0.0
7.2602	534.341900727	0.0
7.2704	534.424151471	1.0
7.2806	534.506034009	1.0
7.2909	534.588347354	1.0
7.3011	534.669494845	1.0
7.3114	534.751069277	0.0
7.3216	534.83148832	2.0
7.3318	534.911547355	1.0
7.3421	534.992027605	2.0
7.3523	535.071367964	0.0
7.3626	535.151125756	1.0
7.3728	535.229753889	0.0
7.383	535.308030032	1.0
7.3933	535.386718009	2.0
7.4035	535.464291479	1.0
7.4138	535.542273087	1.0
7.424	535.619150193	2.0
7.4342	535.695683148	0.0
7.4445	535.772618765	3.0
7.4547	535.848464696	0.0
7.465	535.924709675	1.0
7.4752	535.999874749	4.0
7.4854	536.074703336	0.0
7.4957	536.149925618	0.0
7.5059	536.224082481	0.0
7.5162	536.298629505	1.0
7.5264	536.372120674	0.0
7.5366	536.445282849	1.0
7.5469	536.518829951	0.0
7.5571	536.591335361	0.0
7.5674	536.664222244	0.0
7.5776	536.736076784	2.0
7.5878	536.807609657	1.0
7.5981	536.879518887	1.0
7.6083	536.950409621	1.0
7.6186	537.021673332	4.0
7.6288	537.091927692	2.0
7.639	537.161867548	0.0
7.6493	537.232175378	1.0
7.6595	537.301487395	1.0
7.6698	537.371164084	1.0
7.68	537.439853898	2.0
7.6902	537.508236213	0.0
7.7005	537.576978307	0.0
7.7107	537.644746765	0.0
7.721	537.712871772	3.0
7.7312	537.780031883	0.0
7.7414	537.846891343	1.0
7.7517	537.914102569	1.0
7.7619	537.980361842	0.0
7.7722	538.046969725	2.0
7.7824	538.112634198	0.0
7.7926	538.178004716	1.0
7.8029	538.243719167	0.0
7.8131	538.308502864	3.0
7.8234	538.373627407	0.0
7.8336	538.437829551	2.0
7.8438	538.501744286	1.0
7.8541	538.565995294	1.0
7.8643	538.629336276	2.0
7.8746	538.693010513	1.0
7.8848	538.755782894	1.0
7.895	538.818274264	0.0
7.9053	538.88109442	0.0
7.9155	538.943024816	0.0
7.9258	539.005281046	0.0
7.936	539.066655502	0.0
7.9462	539.127755207	0.0
7.9565	539.189176376	0.0
7.9667	539.249727598	1.0
7.977	539.310597399	1.0
7.9872	539.370605063	0.0
7.9974	539.430344094	2.0
8.0077	539.490397431	2.0
8.0179	539.549600194	2.0
8.0282	539.609114441	0.0
8.0384	539.667785751	1.0
