TL-DOS Lehrstuhlversuch
detector=R1408201
job_number=2015-10-22-006
irradiation_dose [mSv]=5.0

[BEGIN DATA]
time [sec] 	 temperature [K] 	 photoncount 
0.0	175.696797003	0.0
0.0102	178.042133999	0.0
0.0205	180.394829593	2.0
0.0307	182.709302425	0.0
0.041	185.031037017	1.0
0.0512	187.315051851	2.0
0.0614	189.584061637	0.0
0.0717	191.860190541	2.0
0.0819	194.099340613	3.0
0.0922	196.345516118	1.0
0.1024	198.555199425	1.0
0.1126	200.750366012	1.0
0.1229	202.95242003	2.0
0.1331	205.118698665	1.0
0.1434	207.291774095	3.0
0.1536	209.429544938	2.0
0.1638	211.553271497	1.0
0.1741	213.683661341	2.0
0.1843	215.779440084	0.0
0.1946	217.881794425	1.0
0.2048	219.949993141	2.0
0.215	222.004604632	2.0
0.2253	224.065662558	2.0
0.2355	226.093235774	5.0
0.2458	228.127170592	0.0
0.256	230.128061352	0.0
0.2662	232.115807074	0.0
0.2765	234.109789435	0.0
0.2867	236.071376822	0.0
0.297	238.039118777	0.0
0.3072	239.974892068	0.0
0.3174	241.897948116	2.0
0.3277	243.827037837	0.0
0.3379	245.724786853	0.0
0.3482	247.628490141	0.0
0.3584	249.501265161	2.0
0.3686	251.361736812	0.0
0.3789	253.228045774	0.0
0.3891	255.064033991	0.0
0.3994	256.905782702	0.0
0.4096	258.717609682	0.0
0.4198	260.517533697	0.0
0.4301	262.323105052	0.0
0.4403	264.099342428	0.0
0.4506	265.881152826	0.0
0.4608	267.634015275	0.0
0.471	269.37536213	0.0
0.4813	271.122172538	0.0
0.4915	272.840603618	0.0
0.5018	274.564426351	0.0
0.512	276.260243224	0.0
0.5222	277.944919269	0.0
0.5325	279.634881059	1.0
0.5427	281.297387106	0.0
0.553	282.965109338	0.0
0.5632	284.605737139	1.0
0.5734	286.235586683	0.0
0.5837	287.870549951	1.0
0.5939	289.478951002	0.0
0.6042	291.092398482	1.0
0.6144	292.679633298	0.0
0.6246	294.256440626	0.0
0.6349	295.838195258	0.0
0.6451	297.394252119	3.0
0.6554	298.955191177	0.0
0.6656	300.490770642	0.0
0.6758	302.016261974	3.0
0.6861	303.546539603	0.0
0.6963	305.051955776	0.0
0.7066	306.562095258	0.0
0.7168	308.047700457	0.0
0.727	309.523545833	1.0
0.7373	311.00402174	4.0
0.7475	312.460445287	1.0
0.7578	313.921438428	2.0
0.768	315.358695734	3.0
0.7782	316.786510844	0.0
0.7885	318.218805787	1.0
0.7987	319.627831138	1.0
0.809	321.041277367	4.0
0.8192	322.431760226	3.0
0.8294	323.813108179	1.0
0.8397	325.198790171	4.0
0.8499	326.561959862	3.0
0.8602	327.929406558	6.0
0.8704	329.27463721	6.0
0.8806	330.611030243	11.0
0.8909	331.951616268	12.0
0.9011	333.270422637	6.0
0.9114	334.59336682	7.0
0.9216	335.894817962	6.0
0.9318	337.1877191	19.0
0.9421	338.484676772	15.0
0.9523	339.76056359	15.0
0.9626	341.040453559	19.0
0.9728	342.299549963	20.0
0.983	343.550374616	16.0
0.9933	344.805123786	25.0
1.0035	346.039487837	43.0
1.0138	347.27772476	29.0
1.024	348.495844828	44.0
1.0342	349.705962343	47.0
1.0445	350.919876655	48.0
1.0547	352.114069266	63.0
1.065	353.31200871	58.0
1.0752	354.490485986	39.0
1.0854	355.661221146	69.0
1.0957	356.835629539	89.0
1.1059	357.99095806	92.0
1.1162	359.149911474	74.0
1.1264	360.290036103	114.0
1.1366	361.422670577	115.0
1.1469	362.558858742	130.0
1.1571	363.676587973	122.0
1.1674	364.79782413	121.0
1.1776	365.900844269	155.0
1.1878	366.996618015	152.0
1.1981	368.095829799	189.0
1.2083	369.177183382	212.0
1.2186	370.26192976	233.0
1.2288	371.329052948	238.0
1.239	372.389165569	237.0
1.2493	373.452604341	281.0
1.2595	374.498766094	324.0
1.2698	375.548210225	339.0
1.28	376.5806047	355.0
1.2902	377.606216762	354.0
1.3005	378.635046727	398.0
1.3107	379.647161941	458.0
1.321	380.66245271	446.0
1.3312	381.661248691	522.0
1.3414	382.653482988	530.0
1.3517	383.648830464	570.0
1.3619	384.628007157	577.0
1.3722	385.61025606	644.0
1.3824	386.576546984	676.0
1.3926	387.53648977	718.0
1.4029	388.499444419	725.0
1.4131	389.446754551	797.0
1.4234	390.39703691	813.0
1.4336	391.331880631	833.0
1.4438	392.260582808	909.0
1.4541	393.19219883	920.0
1.4643	394.108679473	944.0
1.4746	395.028035615	1010.0
1.4848	395.932455557	1021.0
1.495	396.830933828	1032.0
1.5053	397.732231114	1116.0
1.5155	398.618885591	1080.0
1.5258	399.508321986	1079.0
1.536	400.383308269	1143.0
1.5462	401.252546247	1146.0
1.5565	402.124511498	1129.0
1.5667	402.982310479	1124.0
1.577	403.842800843	1164.0
1.5872	404.689311362	1136.0
1.5974	405.530260651	1178.0
1.6077	406.373848455	1179.0
1.6179	407.20373102	1168.0
1.6282	408.036217379	1098.0
1.6384	408.855178856	1081.0
1.6486	409.66876009	1061.0
1.6589	410.48489397	1069.0
1.6691	411.287768638	1022.0
1.6794	412.09316236	957.0
1.6896	412.885471359	941.0
1.6998	413.672575209	918.0
1.7101	414.462148633	802.0
1.7203	415.238894355	813.0
1.7306	416.018077151	824.0
1.7408	416.784601055	821.0
1.751	417.546089209	753.0
1.7613	418.309966565	765.0
1.7715	419.061433688	678.0
1.7818	419.815258572	684.0
1.792	420.556836538	648.0
1.8022	421.293542639	655.0
1.8125	422.032560188	632.0
1.8227	422.759571384	588.0
1.833	423.48886361	647.0
1.8432	424.206307485	643.0
1.8534	424.919038045	601.0
1.8637	425.634004829	621.0
1.8739	426.337355999	639.0
1.8842	427.042913963	655.0
1.8944	427.737009173	668.0
1.9046	428.426544459	714.0
1.9149	429.118243192	649.0
1.9251	429.798704332	676.0
1.9354	430.481300449	686.0
1.9456	431.152806857	785.0
1.9558	431.819901741	758.0
1.9661	432.489089665	839.0
1.9763	433.147405715	787.0
1.9866	433.80778726	835.0
1.9968	434.457440002	872.0
2.007	435.10282479	865.0
2.0173	435.750234502	950.0
2.0275	436.387126155	885.0
2.0378	437.026016085	922.0
2.048	437.654526373	922.0
2.0582	438.278907603	1014.0
2.0685	438.905247858	1006.0
2.0787	439.521412357	1044.0
2.089	440.139510099	1040.0
2.0992	440.747565997	1064.0
2.1094	441.351627215	1066.0
2.1197	441.957583702	1118.0
2.1299	442.553695595	1116.0
2.1402	443.151677816	1127.0
2.1504	443.739944997	1113.0
2.1606	444.324347502	1163.0
2.1709	444.910583595	1076.0
2.1811	445.48729548	1162.0
2.1914	446.065816825	1142.0
2.2016	446.634939297	1122.0
2.2118	447.200322866	1123.0
2.2221	447.767480352	1137.0
2.2323	448.325423587	1162.0
2.2426	448.885117393	1120.0
2.2528	449.435718208	1136.0
2.263	449.982701798	1150.0
2.2733	450.531401574	1134.0
2.2835	451.071186971	1180.0
2.2938	451.612665968	1169.0
2.304	452.145347897	1080.0
2.3142	452.674530322	1073.0
2.3245	453.205373081	1102.0
2.3347	453.727591572	1099.0
2.345	454.251448547	1087.0
2.3552	454.766794747	1032.0
2.3654	455.278755333	1048.0
2.3757	455.792322217	1025.0
2.3859	456.297545504	1041.0
2.3962	456.804353952	1033.0
2.4064	457.302928602	997.0
2.4166	457.798227819	983.0
2.4269	458.29508106	959.0
2.4371	458.783862239	948.0
2.4474	459.274176991	942.0
2.4576	459.756525908	954.0
2.4678	460.235705989	930.0
2.4781	460.716389518	929.0
2.4883	461.189263685	939.0
2.4986	461.663621516	986.0
2.5088	462.130272754	967.0
2.519	462.593858283	996.0
2.5293	463.058898332	906.0
2.5395	463.516383169	930.0
2.5498	463.975303385	913.0
2.56	464.426767813	926.0
2.5702	464.875266303	890.0
2.5805	465.325171978	934.0
2.5907	465.767768318	835.0
2.601	466.211753324	910.0
2.6112	466.648525185	932.0
2.6214	467.082427633	946.0
2.6317	467.517691469	876.0
2.6419	467.945883848	932.0
2.6522	468.3754197	935.0
2.6624	468.797977153	891.0
2.6726	469.217758575	914.0
2.6829	469.63885708	833.0
2.6931	470.053114264	916.0
2.7034	470.468671197	917.0
2.7136	470.877476839	875.0
2.7238	471.283596794	864.0
2.7341	471.690990969	907.0
2.7443	472.091766467	895.0
2.7546	472.493799416	871.0
2.7648	472.889300789	913.0
2.775	473.282203879	910.0
2.7853	473.676339719	867.0
2.7955	474.064072283	880.0
2.8058	474.453021375	933.0
2.816	474.835651457	905.0
2.8262	475.215767814	858.0
2.8365	475.597076803	849.0
2.8467	475.972190906	825.0
2.857	476.348481945	865.0
2.8672	476.718659622	854.0
2.8774	477.086405381	870.0
2.8877	477.455304959	852.0
2.8979	477.818211258	813.0
2.9082	478.182256192	863.0
2.9184	478.540386717	830.0
2.9286	478.89616447	786.0
2.9389	479.253058491	840.0
2.9491	479.604154281	784.0
2.9594	479.956351648	765.0
2.9696	480.302827088	802.0
2.9798	480.647026324	829.0
2.9901	480.992305501	820.0
3.0003	481.331975145	845.0
3.0106	481.672710517	787.0
3.0208	482.007910176	760.0
3.031	482.34090771	824.0
3.0413	482.674950039	793.0
3.0515	483.003565392	792.0
3.0618	483.333211791	760.0
3.072	483.657502632	756.0
3.0822	483.979663014	738.0
3.0925	484.302834189	754.0
3.1027	484.620755005	688.0
3.113	484.939673312	730.0
3.1232	485.253410354	733.0
3.1334	485.565086272	781.0
3.1437	485.877740086	767.0
3.1539	486.185314411	739.0
3.1642	486.493853764	704.0
3.1744	486.797380473	756.0
3.1846	487.098913134	754.0
3.1949	487.401391868	733.0
3.2051	487.69895642	728.0
3.2154	487.997454595	735.0
3.2256	488.291103257	741.0
3.2358	488.582822767	723.0
3.2461	488.875457561	717.0
3.2563	489.163338101	699.0
3.2666	489.452121879	716.0
3.2768	489.736213969	747.0
3.287	490.018439689	684.0
3.2973	490.301550905	700.0
3.3075	490.580062592	674.0
3.3178	490.859448121	711.0
3.328	491.13429465	682.0
3.3382	491.407335549	678.0
3.3485	491.681233126	686.0
3.3587	491.950680862	677.0
3.369	492.220974001	690.0
3.3792	492.486875859	669.0
3.3894	492.751030849	663.0
3.3997	493.016014637	693.0
3.4099	493.276693401	691.0
3.4202	493.538190056	708.0
3.4304	493.795438339	691.0
3.4406	494.050996606	726.0
3.4509	494.307356699	682.0
3.4611	494.55955187	644.0
3.4714	494.812538315	705.0
3.4816	495.061414649	682.0
3.4918	495.308655966	754.0
3.5021	495.556673014	662.0
3.5123	495.800660685	665.0
3.5226	496.045413879	735.0
3.5328	496.286190721	699.0
3.543	496.525385758	685.0
3.5533	496.765331279	692.0
3.5635	497.001378557	718.0
3.5738	497.238166444	715.0
3.584	497.471107387	710.0
3.5942	497.702518003	669.0
3.6045	497.93465468	712.0
3.6147	498.163019979	685.0
3.625	498.392101784	672.0
3.6352	498.617461841	708.0
3.6454	498.841341374	666.0
3.6557	499.065923339	687.0
3.6659	499.286856663	704.0
3.6762	499.508483174	697.0
3.6864	499.72650906	657.0
3.6966	499.943102604	652.0
3.7069	500.16037572	644.0
3.7171	500.374118936	664.0
3.7274	500.588532781	667.0
3.7376	500.79946318	643.0
3.7478	501.009007852	662.0
3.7581	501.219209979	626.0
3.7683	501.425997085	655.0
3.7786	501.633432995	632.0
3.7888	501.837498824	648.0
3.799	502.040224023	607.0
3.8093	502.243585282	540.0
3.8195	502.443642659	608.0
3.8298	502.644327725	580.0
3.84	502.841752386	589.0
3.8502	503.037880048	577.0
3.8605	503.23462307	603.0
3.8707	503.428169731	573.0
3.881	503.622323654	518.0
3.8912	503.81332328	500.0
3.9014	504.003068116	587.0
3.9117	504.193408285	519.0
3.9219	504.380656118	482.0
3.9322	504.568491449	467.0
3.9424	504.753275137	464.0
3.9526	504.936844872	429.0
3.9629	505.120990565	484.0
3.9731	505.302144559	451.0
3.9834	505.483866932	424.0
3.9936	505.662636975	414.0
4.0038	505.840232573	421.0
4.0141	506.018385384	388.0
4.0243	506.193643859	416.0
4.0346	506.369452215	363.0
4.0448	506.542404324	433.0
4.055	506.714220207	353.0
4.0653	506.886575171	362.0
4.0755	507.056129992	333.0
4.0858	507.226216799	334.0
4.096	507.393540312	324.0
4.1062	507.559764579	328.0
4.1165	507.726510381	329.0
4.1267	507.890547169	270.0
4.137	508.05509863	282.0
4.1472	508.216976727	269.0
4.1574	508.377791351	265.0
4.1677	508.539110538	242.0
4.1779	508.697808873	254.0
4.1882	508.857005132	205.0
4.1984	509.013615029	238.0
4.2086	509.169196064	217.0
4.2189	509.32526524	212.0
4.2291	509.478798859	228.0
4.2394	509.632814196	208.0
4.2496	509.784327344	156.0
4.2598	509.934845111	179.0
4.2701	510.085835135	188.0
4.2803	510.234372119	160.0
4.2906	510.383375144	163.0
4.3008	510.529957411	135.0
4.311	510.675576693	136.0
4.3213	510.821652861	132.0
4.3315	510.965355821	112.0
4.3418	511.109509657	135.0
4.352	511.251321515	106.0
4.3622	511.392201728	123.0
4.3725	511.533523958	93.0
4.3827	511.672550215	96.0
4.393	511.812012673	100.0
4.4032	511.949209372	81.0
4.4134	512.085504745	63.0
4.4237	512.222227751	74.0
4.4339	512.356729504	78.0
4.4442	512.491653263	91.0
4.4544	512.624385	66.0
4.4646	512.756244743	67.0
4.4749	512.888518203	54.0
4.4851	513.018642698	72.0
4.4954	513.149175466	55.0
4.5056	513.277587549	63.0
4.5158	513.405156018	46.0
4.5261	513.533124738	63.0
4.5363	513.659014431	58.0
4.5466	513.785299108	48.0
4.5568	513.909532118	48.0
4.567	514.032948968	32.0
4.5773	514.156753043	37.0
4.5875	514.278545752	34.0
4.5978	514.400720591	33.0
4.608	514.520910532	27.0
4.6182	514.640310874	33.0
4.6285	514.760085839	31.0
4.6387	514.877914897	23.0
4.649	514.996113648	30.0
4.6592	515.112392099	16.0
4.6694	515.227906648	32.0
4.6797	515.343783628	26.0
4.6899	515.457778029	19.0
4.7002	515.572130091	23.0
4.7104	515.684624348	18.0
4.7206	515.796379564	22.0
4.7309	515.908485416	24.0
4.7411	516.018769955	18.0
4.7514	516.129400517	15.0
4.7616	516.238233734	17.0
4.7718	516.346351961	10.0
4.7821	516.454809413	12.0
4.7923	516.561504826	21.0
4.8026	516.668535	15.0
4.8128	516.773826323	17.0
4.823	516.878425924	19.0
4.8333	516.983353712	10.0
4.8435	517.086576803	18.0
4.8538	517.190123762	12.0
4.864	517.291988458	9.0
4.8742	517.393183945	11.0
4.8845	517.494696937	12.0
4.8947	517.594560712	7.0
4.905	517.694737813	10.0
4.9152	517.7932874	6.0
4.9254	517.891189557	13.0
4.9357	517.989398886	11.0
4.9459	518.08601267	6.0
4.9562	518.182929584	3.0
4.9664	518.27827195	10.0
4.9766	518.372987955	13.0
4.9869	518.468001136	12.0
4.9971	518.561470697	4.0
5.0074	518.655233524	12.0
5.0176	518.747473045	10.0
5.0278	518.83910659	9.0
5.0381	518.931027639	6.0
5.0483	519.021455305	14.0
5.0586	519.112166692	8.0
5.0688	519.201404348	7.0
5.079	519.290055748	6.0
5.0893	519.378985297	4.0
5.0995	519.466470063	7.0
5.1098	519.554229317	4.0
5.12	519.640562801	10.0
5.1302	519.726329109	5.0
5.1405	519.812364513	11.0
5.1507	519.897002154	8.0
5.161	519.981905349	4.0
5.1712	520.065429176	8.0
5.1814	520.148404285	2.0
5.1917	520.231639732	8.0
5.2019	520.313522905	5.0
5.2122	520.395662991	10.0
5.2224	520.476468598	4.0
5.2326	520.556743345	6.0
5.2429	520.637269958	4.0
5.2531	520.716488305	6.0
5.2634	520.795955204	7.0
5.2736	520.874131054	3.0
5.2838	520.95179332	4.0
5.2941	521.029699256	8.0
5.3043	521.106339502	7.0
5.3146	521.183220211	5.0
5.3248	521.258851888	2.0
5.335	521.333986695	2.0
5.3453	521.409357241	6.0
5.3555	521.483503289	7.0
5.3658	521.557881973	3.0
5.376	521.631052274	7.0
5.3862	521.703741876	4.0
5.3965	521.776659545	4.0
5.4067	521.848392566	6.0
5.417	521.920350653	1.0
5.4272	521.991139682	6.0
5.4374	522.061463656	4.0
5.4477	522.132008275	1.0
5.4579	522.201406799	5.0
5.4682	522.271023065	5.0
5.4784	522.339508319	9.0
5.4886	522.407543653	7.0
5.4989	522.47579245	5.0
5.5091	522.542932453	5.0
5.5194	522.61028311	5.0
5.5296	522.676539563	5.0
5.5398	522.742360739	7.0
5.5501	522.808388431	8.0
5.5603	522.873343413	3.0
5.5706	522.938502194	7.0
5.5808	523.002602382	9.0
5.591	523.066281457	6.0
5.6013	523.130160329	8.0
5.6115	523.1930014	3.0
5.6218	523.256039638	4.0
5.632	523.318053734	5.0
5.6422	523.379660422	2.0
5.6525	523.441460404	7.0
5.6627	523.502256361	7.0
5.673	523.563243067	3.0
5.6832	523.623238961	1.0
5.6934	523.682840707	6.0
5.7037	523.742629455	3.0
5.7139	523.801446854	6.0
5.7242	523.860448794	5.0
5.7344	523.918492167	4.0
5.7446	523.976154219	5.0
5.7549	524.033997188	5.0
5.7651	524.090900419	5.0
5.7754	524.147982187	4.0
5.7856	524.204136582	6.0
5.7958	524.259922067	0.0
5.8061	524.31588258	3.0
5.8163	524.370933939	5.0
5.8266	524.426158023	0.0
5.8368	524.480484917	5.0
5.847	524.534454905	6.0
5.8573	524.588594226	8.0
5.8675	524.64185398	5.0
5.8778	524.695280839	5.0
5.888	524.747839705	2.0
5.8982	524.800053281	2.0
5.9085	524.852430679	2.0
5.9187	524.903957135	9.0
5.929	524.955645257	4.0
5.9392	525.006493634	8.0
5.9494	525.057007959	6.0
5.9597	525.107680775	6.0
5.9699	525.157530341	5.0
5.9802	525.207536313	5.0
5.9904	525.256729869	3.0
6.0006	525.305600243	4.0
6.0109	525.35462395	6.0
6.0211	525.4028512	5.0
6.0314	525.451229765	7.0
6.0416	525.498822354	6.0
6.0518	525.54610228	5.0
6.0621	525.593530548	4.0
6.0723	525.640188278	2.0
6.0826	525.6869924	6.0
6.0928	525.733036124	6.0
6.103	525.77877736	4.0
6.1133	525.824662111	4.0
6.1235	525.869801402	4.0
6.1338	525.915082319	5.0
6.144	525.959627585	4.0
6.1542	526.003880207	2.0
6.1645	526.048271674	3.0
6.1747	526.091941941	5.0
6.185	526.135749225	3.0
6.1952	526.178844799	3.0
6.2054	526.221657253	6.0
6.2157	526.264604034	4.0
6.2259	526.306853085	2.0
6.2362	526.349234694	4.0
6.2464	526.390927756	3.0
6.2566	526.432346911	7.0
6.2669	526.473896021	3.0
6.2771	526.514770108	0.0
6.2874	526.55577244	2.0
6.2976	526.596108633	2.0
6.3078	526.636179834	3.0
6.3181	526.676376759	5.0
6.3283	526.715920631	4.0
6.3386	526.755588573	2.0
6.3488	526.794612055	4.0
6.359	526.833379169	3.0
6.3693	526.872267916	3.0
6.3795	526.910524862	3.0
6.3898	526.948901842	4.0
6.4	526.986655334	9.0
6.4102	527.024160802	2.0
6.4205	527.061783944	3.0
6.4307	527.098795847	5.0
6.441	527.135923877	4.0
6.4512	527.17244871	8.0
6.4614	527.208733591	4.0
6.4717	527.245132317	5.0
6.4819	527.280939696	3.0
6.4922	527.316859422	2.0
6.5024	527.352195583	0.0
6.5126	527.387299599	3.0
6.5229	527.422513756	4.0
6.5331	527.457155811	6.0
6.5434	527.491906557	0.0
6.5536	527.526092729	7.0
6.5638	527.560054312	4.0
6.5741	527.594122452	3.0
6.5843	527.627637107	4.0
6.5946	527.661256916	5.0
6.6048	527.694330526	4.0
6.615	527.727186855	3.0
6.6253	527.760146272	8.0
6.6355	527.792570219	3.0
6.6458	527.825095897	2.0
6.656	527.857093151	5.0
6.6662	527.888880196	6.0
6.6765	527.920766974	5.0
6.6867	527.952135708	4.0
6.697	527.983602862	2.0
6.7072	528.01455879	2.0
6.7174	528.04531135	5.0
6.7277	528.076160397	2.0
6.7379	528.106508259	7.0
6.7482	528.136951339	4.0
6.7584	528.166899829	4.0
6.7686	528.19665157	2.0
6.7789	528.226496659	3.0
6.7891	528.255856873	3.0
6.7994	528.285309206	3.0
6.8096	528.314283046	3.0
6.8198	528.343066539	6.0
6.8301	528.371940342	4.0
6.8403	528.40034505	5.0
6.8506	528.428838879	7.0
6.8608	528.456869787	2.0
6.871	528.484716543	6.0
6.8813	528.51265067	5.0
6.8915	528.540130969	4.0
6.9018	528.567697488	0.0
6.912	528.594816151	2.0
6.9222	528.621756656	5.0
6.9325	528.648781688	4.0
6.9427	528.675367661	2.0
6.953	528.702037049	1.0
6.9632	528.728273156	4.0
6.9734	528.754336903	5.0
6.9837	528.780482425	3.0
6.9939	528.806203178	7.0
7.0042	528.832004631	6.0
7.0144	528.857386904	4.0
7.0246	528.882602426	3.0
7.0349	528.907897062	4.0
7.0451	528.932780753	1.0
7.0554	528.957742517	4.0
7.0656	528.982298743	4.0
7.0758	529.006693645	2.0
7.0861	529.031165087	4.0
7.0963	529.055238956	4.0
7.1066	529.079388359	2.0
7.1168	529.103145421	3.0
7.127	529.126746409	4.0
7.1373	529.150421447	3.0
7.1475	529.173711851	2.0
7.1578	529.197075329	4.0
7.168	529.220059236	5.0
7.1782	529.242892148	5.0
7.1885	529.265796699	3.0
7.1987	529.288329135	5.0
7.209	529.310932267	5.0
7.2192	529.33316818	5.0
7.2294	529.355258012	2.0
7.2397	529.377417152	5.0
7.2499	529.399216287	2.0
7.2602	529.421083817	3.0
7.2704	529.442596079	1.0
7.2806	529.463967014	4.0
7.2909	529.485405002	7.0
7.3011	529.5064947	3.0
7.3114	529.527650568	4.0
7.3216	529.54846273	4.0
7.3318	529.569138165	9.0
7.3421	529.589878469	1.0
7.3523	529.610281819	2.0
7.3626	529.630749186	4.0
7.3728	529.650884032	0.0
7.383	529.6708866	2.0
7.3933	529.690951927	4.0
7.4035	529.710691266	4.0
7.4138	529.730492537	2.0
7.424	529.74997211	3.0
7.4342	529.76932371	3.0
7.4445	529.788736026	4.0
7.4547	529.807832963	4.0
7.465	529.826989817	6.0
7.4752	529.845835442	5.0
7.4854	529.864557259	6.0
7.4957	529.883337816	2.0
7.5059	529.901813257	3.0
7.5162	529.920346666	4.0
7.5264	529.938578974	7.0
7.5366	529.956691504	0.0
7.5469	529.974860862	1.0
7.5571	529.992735034	6.0
7.5674	530.010665288	1.0
7.5776	530.028304239	3.0
7.5878	530.04582731	5.0
7.5981	530.063405361	4.0
7.6083	530.080697831	5.0
7.6186	530.098044558	0.0
7.6288	530.115109464	3.0
7.639	530.132062259	3.0
7.6493	530.149068245	5.0
7.6595	530.165797946	4.0
7.6698	530.182580137	1.0
7.68	530.199089678	0.0
7.6902	530.215490758	3.0
7.7005	530.231943297	4.0
7.7107	530.248128542	5.0
7.721	530.264364569	2.0
7.7312	530.28033682	10.0
7.7414	530.296204139	3.0
7.7517	530.312121243	1.0
7.7619	530.327779752	0.0
7.7722	530.343487389	3.0
7.7824	530.358939835	4.0
7.7926	530.374290765	3.0
7.8029	530.389689858	5.0
7.8131	530.404838773	4.0
7.8234	530.420035218	2.0
7.8336	530.434984775	2.0
7.8438	530.44983612	2.0
7.8541	530.464734062	5.0
7.8643	530.479389967	2.0
7.8746	530.494091855	6.0
