TL-DOS Lehrstuhlversuch
detector=R1408101
job_number=2015-10-21-012
irradiation_dose [mSv]=5.0

[BEGIN DATA]
time [sec] 	 temperature [K] 	 photoncount 
0.0	131.823703883	0.0
0.0102	133.517151893	0.0
0.0205	135.220271426	1.0
0.0307	136.900019971	1.0
0.041	138.5893618	1.0
0.0512	140.255521706	4.0
0.0614	141.914961445	0.0
0.0717	143.583878481	3.0
0.0819	145.229893873	2.0
0.0922	146.885309892	0.0
0.1024	148.518009535	1.0
0.1126	150.144123967	2.0
0.1229	151.77952537	5.0
0.1331	153.392485046	4.0
0.1434	155.014656564	1.0
0.1536	156.6145679	1.0
0.1638	158.208026273	1.0
0.1741	159.810585113	2.0
0.1843	161.391152907	2.0
0.1946	162.980747548	1.0
0.2048	164.548529042	0.0
0.215	166.109987163	0.0
0.2253	167.680362993	0.0
0.2355	169.229189407	1.0
0.2458	170.786861388	0.0
0.256	172.323158281	0.0
0.2662	173.853258787	0.0
0.2765	175.392097915	0.0
0.2867	176.909820387	1.0
0.297	178.436210788	0.0
0.3072	179.941655361	0.0
0.3174	181.441027985	0.0
0.3277	182.948963739	1.0
0.3379	184.436206907	0.0
0.3482	185.931943933	0.0
0.3584	187.40715577	0.0
0.3686	188.876417597	0.0
0.3789	190.354070587	0.0
0.3891	191.811446545	0.0
0.3994	193.277145785	0.0
0.4096	194.722732028	0.0
0.4198	196.162487751	0.0
0.4301	197.610466123	0.0
0.4403	199.038574672	0.0
0.4506	200.474839353	0.0
0.4608	201.891394951	0.0
0.471	203.302237119	0.0
0.4813	204.721136807	0.0
0.4915	206.120565703	0.0
0.5018	207.527986937	0.0
0.512	208.916094892	0.0
0.5222	210.298604154	0.0
0.5325	211.689009124	0.0
0.5427	213.060334319	0.0
0.553	214.439491348	0.0
0.5632	215.799722952	0.0
0.5734	217.154468299	0.0
0.5837	218.516950788	0.0
0.5939	219.860736669	0.0
0.6042	221.212197102	0.0
0.6144	222.545112175	1.0
0.6246	223.872651168	1.0
0.6349	225.207771924	0.0
0.6451	226.524571542	0.0
0.6554	227.84889159	0.0
0.6656	229.155038711	0.0
0.6758	230.455917714	0.0
0.6861	231.764226223	1.0
0.6963	233.054581523	1.0
0.7066	234.352306225	0.0
0.7168	235.632222955	1.0
0.727	236.906977363	0.0
0.7373	238.189012075	0.0
0.7475	239.453454118	0.0
0.7578	240.725117571	0.0
0.768	241.979330674	0.0
0.7782	243.228485127	0.0
0.7885	244.484773679	1.0
0.7987	245.723822864	0.0
0.809	246.969948435	2.0
0.8192	248.1989741	0.0
0.8294	249.423042703	0.0
0.8397	250.654102136	0.0
0.8499	251.868268408	0.0
0.8602	253.089368956	0.0
0.8704	254.293713003	1.0
0.8806	255.493199537	0.0
0.8909	256.69953651	1.0
0.9011	257.889319573	1.0
0.9114	259.085897658	0.0
0.9216	260.266055749	0.0
0.9318	261.441453878	1.0
0.9421	262.623564873	0.0
0.9523	263.789454399	0.0
0.9626	264.962002486	0.0
0.9728	266.118460331	1.0
0.983	267.270253804	0.0
0.9933	268.428625333	0.0
1.0035	269.571101158	0.0
1.0138	270.720101824	1.0
1.024	271.853335377	1.0
1.0342	272.98199823	0.0
1.0445	274.117107036	0.0
1.0547	275.23663936	1.0
1.065	276.362565491	1.0
1.0752	277.473041149	2.0
1.0854	278.579037896	0.0
1.0957	279.691351147	0.0
1.1059	280.788400727	1.0
1.1162	281.891715712	1.0
1.1264	282.979890504	1.0
1.1366	284.063676332	0.0
1.1469	285.153651815	2.0
1.1571	286.228670155	2.0
1.1674	287.309828078	1.0
1.1776	288.376149856	0.0
1.1878	289.438170811	1.0
1.1981	290.506257118	1.0
1.2083	291.559686656	2.0
1.2186	292.619132479	1.0
1.2288	293.664040102	2.0
1.239	294.704733271	2.0
1.2493	295.751369987	2.0
1.2595	296.783644275	0.0
1.2698	297.821814027	2.0
1.28	298.845737539	0.0
1.2902	299.865531233	1.0
1.3005	300.891149114	2.0
1.3107	301.902692997	2.0
1.321	302.92001395	1.0
1.3312	303.923374759	1.0
1.3414	304.922688687	3.0
1.3517	305.927709839	0.0
1.3619	306.91893963	1.0
1.3722	307.915830476	3.0
1.3824	308.899041528	1.0
1.3926	309.87828697	0.0
1.4029	310.863125021	1.0
1.4131	311.834448674	1.0
1.4234	312.811319694	2.0
1.4336	313.774785642	4.0
1.4438	314.734365618	3.0
1.4541	315.699425892	4.0
1.4643	316.651243166	2.0
1.4746	317.608496404	1.0
1.4848	318.552613775	3.0
1.495	319.492923212	5.0
1.5053	320.43860289	5.0
1.5155	321.371305519	3.0
1.5258	322.309334944	8.0
1.536	323.234492301	6.0
1.5462	324.155918196	6.0
1.5565	325.082606485	8.0
1.5667	325.996578333	8.0
1.577	326.915770004	9.0
1.5872	327.822348105	7.0
1.5974	328.725269682	6.0
1.6077	329.633347972	11.0
1.6179	330.528965196	12.0
1.6282	331.429697417	10.0
1.6384	332.318069378	8.0
1.6486	333.202858245	5.0
1.6589	334.092700267	6.0
1.6691	334.970331469	14.0
1.6794	335.852974947	15.0
1.6896	336.723506388	11.0
1.6998	337.590526691	17.0
1.7101	338.462498671	15.0
1.7203	339.322505051	18.0
1.7306	340.18742305	19.0
1.7408	341.040472248	15.0
1.751	341.890080821	18.0
1.7613	342.744541629	21.0
1.7715	343.587277134	20.0
1.7818	344.434825621	19.0
1.792	345.27074366	20.0
1.8022	346.103290169	27.0
1.8125	346.940591469	41.0
1.8227	347.766402937	34.0
1.833	348.596930732	30.0
1.8432	349.416061643	31.0
1.8534	350.231888733	38.0
1.8637	351.052375127	32.0
1.8739	351.861602432	46.0
1.8842	352.675451348	44.0
1.8944	353.478132256	34.0
1.9046	354.277575691	54.0
1.9149	355.081584861	65.0
1.9251	355.874561048	51.0
1.9354	356.672066035	48.0
1.9456	357.458627294	70.0
1.9558	358.242016094	57.0
1.9661	359.02987894	79.0
1.9763	359.80693037	74.0
1.9866	360.588419651	84.0
1.9968	361.359184979	67.0
2.007	362.126841558	78.0
2.0173	362.898882334	101.0
2.0275	363.660328812	100.0
2.0378	364.426124019	92.0
2.048	365.181410634	129.0
2.0582	365.933650931	117.0
2.0685	366.69018738	101.0
2.0787	367.436342289	118.0
2.089	368.186758594	133.0
2.0992	368.926877343	132.0
2.1094	369.664010952	161.0
2.1197	370.405354436	168.0
2.1299	371.136524865	152.0
2.1402	371.871871112	187.0
2.1504	372.597126601	196.0
2.1606	373.319456898	180.0
2.1709	374.045912526	198.0
2.1811	374.762399398	224.0
2.1914	375.482978227	214.0
2.2016	376.193668944	243.0
2.2118	376.901493213	233.0
2.2221	377.613359967	244.0
2.2323	378.31545816	234.0
2.2426	379.021566135	272.0
2.2528	379.717984573	281.0
2.263	380.411594128	329.0
2.2733	381.109164986	316.0
2.2835	381.797163458	346.0
2.2938	382.489091186	356.0
2.304	383.171523965	386.0
2.3142	383.85120427	374.0
2.3245	384.534766326	404.0
2.3347	385.20894823	378.0
2.345	385.886980483	393.0
2.3552	386.555708466	421.0
2.3654	387.221739252	441.0
2.3757	387.891573834	481.0
2.3859	388.552216639	515.0
2.3962	389.216632469	511.0
2.4064	389.87193088	538.0
2.4166	390.52458626	506.0
2.4269	391.180969047	576.0
2.4371	391.828344649	581.0
2.4474	392.479417504	553.0
2.4576	393.12155604	575.0
2.4678	393.761104622	640.0
2.4781	394.404305756	608.0
2.4883	395.03868059	640.0
2.4986	395.676678429	674.0
2.5088	396.305921369	630.0
2.519	396.932626367	688.0
2.5293	397.562910566	709.0
2.5395	398.184545717	720.0
2.5498	398.809731115	718.0
2.56	399.426337432	689.0
2.5702	400.040456775	786.0
2.5805	400.65808344	750.0
2.5907	401.26723475	702.0
2.601	401.879865009	775.0
2.6112	402.484088475	734.0
2.6214	403.085874911	750.0
2.6317	403.691098235	783.0
2.6419	404.288016407	741.0
2.6522	404.888343663	726.0
2.6624	405.480432954	770.0
2.6726	406.070134156	748.0
2.6829	406.663203225	740.0
2.6931	407.248133929	728.0
2.7034	407.836405255	764.0
2.7136	408.416604052	771.0
2.7238	408.994462719	684.0
2.7341	409.575621618	631.0
2.7443	410.148805589	661.0
2.7546	410.725263094	666.0
2.7648	411.293810186	623.0
2.775	411.860064142	625.0
2.7853	412.429552055	619.0
2.7955	412.991225194	555.0
2.8058	413.556106128	557.0
2.816	414.113235507	572.0
2.8262	414.668117801	567.0
2.8365	415.226169107	557.0
2.8467	415.776562578	523.0
2.857	416.330099424	524.0
2.8672	416.876040383	476.0
2.8774	417.419779385	498.0
2.8877	417.966623757	450.0
2.8979	418.505964081	462.0
2.9082	419.048384653	483.0
2.9184	419.583361882	408.0
2.9286	420.116181374	439.0
2.9389	420.652043873	407.0
2.9491	421.180553021	418.0
2.9594	421.712080561	421.0
2.9696	422.236314236	424.0
2.9798	422.758433505	410.0
2.9901	423.283534672	431.0
3.0003	423.801430161	385.0
3.0106	424.322283423	429.0
3.0208	424.835989299	444.0
3.031	425.347623232	422.0
3.0413	425.862179178	430.0
3.0515	426.369674153	444.0
3.0618	426.880067503	469.0
3.072	427.383457001	512.0
3.0822	427.884816166	477.0
3.0925	428.389038664	489.0
3.1027	428.88634199	504.0
3.113	429.386485486	516.0
3.1232	429.879765784	548.0
3.1334	430.371056522	543.0
3.1437	430.865153091	502.0
3.1539	431.35246944	551.0
3.1642	431.842568922	524.0
3.1744	432.325943035	607.0
3.1846	432.807367542	583.0
3.1949	433.291541533	635.0
3.2051	433.769071466	635.0
3.2154	434.249328641	652.0
3.2256	434.722995507	595.0
3.2358	435.19475192	666.0
3.2461	435.669202601	699.0
3.2563	436.137142653	629.0
3.2666	436.607755176	697.0
3.2768	437.071909739	725.0
3.287	437.534192215	726.0
3.2973	437.999114852	722.0
3.3075	438.457657608	799.0
3.3178	438.918819166	796.0
3.328	439.373652455	769.0
3.3382	439.826651252	780.0
3.3485	440.28223719	774.0
3.3587	440.731571369	774.0
3.369	441.183471759	801.0
3.3792	441.629170965	770.0
3.3894	442.073072521	868.0
3.3997	442.519509261	891.0
3.4099	442.959819793	863.0
3.4202	443.402645	851.0
3.4304	443.839393557	862.0
3.4406	444.274380564	831.0
3.4509	444.711851844	892.0
3.4611	445.143319943	870.0
3.4714	445.577252217	877.0
3.4816	446.005229874	881.0
3.4918	446.431481358	910.0
3.5021	446.860167224	886.0
3.5123	447.282970467	837.0
3.5226	447.708188398	851.0
3.5328	448.127571295	908.0
3.543	448.545262684	825.0
3.5533	448.965339567	824.0
3.5635	449.379651963	876.0
3.5738	449.796330556	887.0
3.584	450.207291295	901.0
3.5942	450.616594495	871.0
3.6045	451.028235283	852.0
3.6147	451.434227348	844.0
3.625	451.842538092	845.0
3.6352	452.245245808	855.0
3.6454	452.646329273	816.0
3.6557	453.049703382	825.0
3.6659	453.447542207	862.0
3.6762	453.847653147	822.0
3.6864	454.24227358	791.0
3.6966	454.635302381	800.0
3.7069	455.030575825	769.0
3.7171	455.420425146	755.0
3.7274	455.812500952	788.0
3.7376	456.199196513	719.0
3.7478	456.584332406	769.0
3.7581	456.971667864	730.0
3.7683	457.353688128	730.0
3.7786	457.737890164	712.0
3.7888	458.116820003	744.0
3.799	458.494221495	738.0
3.8093	458.87377838	721.0
3.8195	459.248126812	739.0
3.8298	459.624613201	750.0
3.84	459.995933271	684.0
3.8502	460.365755687	689.0
3.8605	460.73769021	667.0
3.8707	461.104520878	697.0
3.881	461.473446568	727.0
3.8912	461.837309691	710.0
3.9014	462.199705235	723.0
3.9117	462.564170471	707.0
3.9219	462.923634348	689.0
3.9322	463.285151175	753.0
3.9424	463.641707102	715.0
3.9526	463.996824923	739.0
3.9629	464.353970872	692.0
3.9731	464.706215901	665.0
3.9834	465.060472651	700.0
3.9936	465.409868128	699.0
4.0038	465.757854379	714.0
4.0141	466.107828029	704.0
4.0243	466.45299918	759.0
4.0346	466.800141653	650.0
4.0448	467.142520477	749.0
4.055	467.483518377	716.0
4.0653	467.826463763	767.0
4.0755	468.164703096	750.0
4.0858	468.504874162	725.0
4.096	468.840377244	728.0
4.1062	469.174527134	741.0
4.1165	469.510585401	747.0
4.1267	469.842032122	718.0
4.137	470.175371782	710.0
4.1472	470.504137203	766.0
4.1574	470.831576606	751.0
4.1677	471.160886062	741.0
4.1779	471.485676583	751.0
4.1882	471.812322028	744.0
4.1984	472.134485095	737.0
4.2086	472.455348774	718.0
4.2189	472.77804495	715.0
4.2291	473.096312942	716.0
4.2394	473.416398607	755.0
4.2496	473.73209191	719.0
4.2598	474.046511919	730.0
4.2701	474.362727626	703.0
4.2803	474.674604076	711.0
4.2906	474.988261696	684.0
4.3008	475.297615163	675.0
4.311	475.605720907	654.0
4.3213	475.915586286	677.0
4.3315	476.22119955	729.0
4.3418	476.528558215	693.0
4.352	476.831699164	698.0
4.3622	477.133617447	731.0
4.3725	477.437260028	730.0
4.3827	477.736735886	738.0
4.393	478.037922093	723.0
4.4032	478.334975285	714.0
4.4134	478.630830365	648.0
4.4237	478.928375116	714.0
4.4339	479.22183682	642.0
4.4442	479.516974527	715.0
4.4544	479.808062218	702.0
4.4646	480.097975858	652.0
4.4749	480.389545236	759.0
4.4851	480.677113566	627.0
4.4954	480.966324239	664.0
4.5056	481.25156623	637.0
4.5158	481.535657748	700.0
4.5261	481.821371753	644.0
4.5363	482.103165059	625.0
4.5466	482.386567727	675.0
4.5568	482.666081413	688.0
4.567	482.94446773	664.0
4.5773	483.224443951	658.0
4.5875	483.500578209	671.0
4.5978	483.77828951	639.0
4.608	484.052189929	639.0
4.6182	484.324985618	649.0
4.6285	484.599339282	596.0
4.6387	484.86992814	611.0
4.649	485.142062369	614.0
4.6592	485.410462247	590.0
4.6694	485.677779581	636.0
4.6797	485.946623603	638.0
4.6899	486.211778423	649.0
4.7002	486.478447581	628.0
4.7104	486.741457382	640.0
4.7206	487.003406379	584.0
4.7309	487.266851403	627.0
4.7411	487.526681315	599.0
4.7514	487.787995152	609.0
4.7616	488.04572312	605.0
4.7718	488.302411588	541.0
4.7821	488.560566041	619.0
4.7923	488.815177979	632.0
4.8026	489.071244043	615.0
4.8128	489.32379625	589.0
4.823	489.575329832	604.0
4.8333	489.828299959	577.0
4.8435	490.077798713	610.0
4.8538	490.32872239	621.0
4.864	490.576202778	586.0
4.8742	490.822684996	526.0
4.8845	491.070574909	618.0
4.8947	491.315063164	600.0
4.905	491.560947725	607.0
4.9152	491.803458146	591.0
4.9254	492.044990444	589.0
4.9357	492.287902166	590.0
4.9459	492.527480543	563.0
4.9562	492.768427186	595.0
4.9664	493.006067448	582.0
4.9766	493.24274923	613.0
4.9869	493.480782736	619.0
4.9971	493.715549836	586.0
5.0074	493.951657725	572.0
5.0176	494.184525633	597.0
5.0278	494.416454309	624.0
5.0381	494.649707562	619.0
5.0483	494.879760008	597.0
5.0586	495.111126316	599.0
5.0688	495.339317709	520.0
5.079	495.566588732	576.0
5.0893	495.795157732	544.0
5.0995	496.020590203	600.0
5.1098	496.247310152	602.0
5.12	496.470918945	644.0
5.1302	496.693625851	594.0
5.1405	496.917604669	605.0
5.1507	497.138509946	569.0
5.161	497.360676844	560.0
5.1712	497.579795067	606.0
5.1814	497.798029514	627.0
5.1917	498.017510329	602.0
5.2019	498.233979328	559.0
5.2122	498.451684612	596.0
5.2224	498.666402445	626.0
5.2326	498.88025425	532.0
5.2429	499.095327394	633.0
5.2531	499.307449205	590.0
5.2634	499.520782474	570.0
5.2736	499.731188287	593.0
5.2838	499.940745464	566.0
5.2941	500.151499452	569.0
5.3043	500.359361377	572.0
5.3146	500.568410431	573.0
5.3248	500.774590818	617.0
5.335	500.979939612	571.0
5.3453	501.186461183	587.0
5.3555	501.39014877	579.0
5.3658	501.594999646	569.0
5.376	501.797039464	550.0
5.3862	501.99826439	545.0
5.3965	502.20063854	518.0
5.4067	502.400235619	547.0
5.417	502.600972625	528.0
5.4272	502.798955026	550.0
5.4374	502.9961389	545.0
5.4477	503.194448918	496.0
5.4579	503.390037636	487.0
5.4682	503.586743389	491.0
5.4784	503.780749855	479.0
5.4886	503.97397383	499.0
5.4989	504.168301335	495.0
5.5091	504.359962188	548.0
5.5194	504.552717644	484.0
5.5296	504.742828021	485.0
5.5398	504.932171621	492.0
5.5501	505.12259659	482.0
5.5603	505.310408459	445.0
5.5706	505.499292949	509.0
5.5808	505.68558548	445.0
5.591	505.871126631	424.0
5.6013	506.057727435	432.0
5.6115	506.241767617	404.0
5.6218	506.426858879	401.0
5.632	506.609410234	389.0
5.6422	506.791225299	432.0
5.6525	506.974078736	401.0
5.6627	507.154422975	363.0
5.673	507.335797185	373.0
5.6832	507.514682495	373.0
5.6934	507.692846302	358.0
5.7037	507.872027628	351.0
5.7139	508.048750146	373.0
5.7242	508.226481951	326.0
5.7344	508.401774839	302.0
5.7446	508.576360714	325.0
5.7549	508.751943673	310.0
5.7651	508.925117203	317.0
5.7754	509.099279751	301.0
5.7856	509.271052361	294.0
5.7958	509.442132156	284.0
5.8061	509.614189012	234.0
5.8163	509.783884825	258.0
5.8266	509.954549795	247.0
5.8368	510.122872822	252.0
5.847	510.290516947	236.0
5.8573	510.459118512	246.0
5.8675	510.625406448	232.0
5.8778	510.792644079	229.0
5.888	510.957586799	216.0
5.8982	511.121864251	226.0
5.9085	511.287079914	206.0
5.9187	511.450028413	189.0
5.929	511.613907533	198.0
5.9392	511.77553783	197.0
5.9494	511.936516218	177.0
5.9597	512.098413977	162.0
5.9699	512.258090101	174.0
5.9802	512.418678158	160.0
5.9904	512.577062552	144.0
6.0006	512.73480813	153.0
6.0109	512.893454615	129.0
6.0211	513.049924081	156.0
6.0314	513.207287166	153.0
6.0416	513.362490842	136.0
6.0518	513.517068532	106.0
6.0621	513.672529037	117.0
6.0723	513.825856241	103.0
6.0826	513.980059119	112.0
6.0928	514.132145955	116.0
6.103	514.283619374	114.0
6.1133	514.43595788	100.0
6.1235	514.586205927	95.0
6.1338	514.737312062	80.0
6.144	514.88634465	87.0
6.1542	515.03477614	90.0
6.1645	515.184055344	77.0
6.1747	515.33128607	84.0
6.185	515.479357652	66.0
6.1952	515.625397328	73.0
6.2054	515.770847978	75.0
6.2157	515.917129317	60.0
6.2259	516.061403317	66.0
6.2362	516.206501286	64.0
6.2464	516.349608154	52.0
6.2566	516.492137826	75.0
6.2669	516.635481505	39.0
6.2771	516.776858156	42.0
6.2874	516.919042229	52.0
6.2976	517.059275188	56.0
6.3078	517.198942541	45.0
6.3181	517.339407554	53.0
6.3283	517.477945042	30.0
6.3386	517.617273737	39.0
6.3488	517.7546905	34.0
6.359	517.891553017	49.0
6.3693	518.029197174	40.0
6.3795	518.164952516	43.0
6.3898	518.301483175	47.0
6.4	518.436140299	33.0
6.4102	518.570254306	31.0
6.4205	518.705134257	34.0
6.4307	518.838163324	30.0
6.441	518.971952139	24.0
6.4512	519.103905042	29.0
6.4614	519.235325737	29.0
6.4717	519.367496993	19.0
6.4819	519.497854535	30.0
6.4922	519.628956568	20.0
6.5024	519.758259558	18.0
6.5126	519.887041027	21.0
6.5229	520.016557986	22.0
6.5331	520.144297653	18.0
6.5434	520.27276686	17.0
6.5536	520.399473154	17.0
6.5638	520.525668399	23.0
6.5741	520.652584364	14.0
6.5843	520.77775873	12.0
6.5946	520.903647984	14.0
6.6048	521.027809728	16.0
6.615	521.151470688	12.0
6.6253	521.275837893	12.0
6.6355	521.398498474	14.0
6.6458	521.521859587	18.0
6.656	521.643527882	13.0
6.6662	521.764705449	12.0
6.6765	521.886575079	14.0
6.6867	522.006772358	15.0
6.697	522.127656101	8.0
6.7072	522.246881021	8.0
6.7174	522.365625069	11.0
6.7277	522.48504728	11.0
6.7379	522.602830725	14.0
6.7482	522.721286849	10.0
6.7584	522.838117463	14.0
6.7686	522.954476861	15.0
6.7789	523.071500804	5.0
6.7891	523.186918891	8.0
6.7994	523.302996147	11.0
6.8096	523.417480538	6.0
6.8198	523.531503176	12.0
6.8301	523.646177014	7.0
6.8403	523.759277244	11.0
6.8506	523.873023406	9.0
6.8608	523.985208691	8.0
6.871	524.096941497	7.0
6.8813	524.209312424	7.0
6.8915	524.320141346	6.0
6.9018	524.431603227	8.0
6.912	524.541535578	9.0
6.9222	524.651024535	11.0
6.9325	524.7611388	5.0
6.9427	524.869742026	6.0
6.953	524.978965501	10.0
6.9632	525.086690161	5.0
6.9734	525.193980332	5.0
6.9837	525.301883253	6.0
6.9939	525.40830548	3.0
7.0042	525.5153355	16.0
7.0144	525.620896805	7.0
7.0246	525.726032347	4.0
7.0349	525.831768333	5.0
7.0451	525.936053361	7.0
7.0554	526.040933976	4.0
7.0656	526.144375371	3.0
7.0758	526.247399553	8.0
7.0861	526.351012121	8.0
7.0963	526.453202869	3.0
7.1066	526.555977244	6.0
7.1168	526.657341302	6.0
7.127	526.758296525	7.0
7.1373	526.859828318	3.0
7.1475	526.959966845	3.0
7.1578	527.060677277	4.0
7.168	527.160005715	2.0
7.1782	527.258933529	3.0
7.1885	527.358426333	5.0
7.1987	527.456553852	5.0
7.209	527.555241791	4.0
7.2192	527.652575489	5.0
7.2294	527.749516608	6.0
7.2397	527.847011372	2.0
7.2499	527.943168268	4.0
7.2602	528.03987433	1.0
7.2704	528.135253346	6.0
7.2806	528.230247669	2.0
7.2909	528.325784517	6.0
7.3011	528.420010365	8.0
7.3114	528.51477435	3.0
7.3216	528.60823794	9.0
7.3318	528.701324561	0.0
7.3421	528.794942813	4.0
7.3523	528.887276392	10.0
7.3626	528.980137302	6.0
7.3728	529.071723932	3.0
7.383	529.162941162	6.0
7.3933	529.254679348	3.0
7.4035	529.34515866	7.0
7.4138	529.436154712	2.0
7.424	529.525902075	3.0
7.4342	529.615287458	6.0
7.4445	529.705183333	1.0
7.4547	529.793845615	6.0
7.465	529.883014261	7.0
7.4752	529.970959293	9.0
7.4854	530.058549615	4.0
7.4957	530.146640177	5.0
7.5059	530.233521921	2.0
7.5162	530.320899858	3.0
7.5264	530.407078755	2.0
7.5366	530.492910065	5.0
7.5469	530.579231569	6.0
7.5571	530.66436853	2.0
7.5674	530.74999172	2.0
7.5776	530.83443995	4.0
7.5878	530.918547573	3.0
7.5981	531.003135546	5.0
7.6083	531.086562764	5.0
7.6186	531.170466447	4.0
7.6288	531.253218765	4.0
7.639	531.335637316	2.0
7.6493	531.418526571	6.0
7.6595	531.500278382	5.0
7.6698	531.582497089	7.0
7.68	531.663587553	5.0
7.6902	531.744350953	3.0
7.7005	531.825575604	3.0
7.7107	531.905685654	3.0
7.721	531.986253223	5.0
7.7312	532.065715207	2.0
7.7414	532.144856695	5.0
7.7517	532.224450171	2.0
7.7619	532.302951429	6.0
7.7722	532.381901019	3.0
7.7824	532.459767227	0.0
7.7926	532.537319375	4.0
7.8029	532.615314434	4.0
7.8131	532.692239209	3.0
7.8234	532.769603312	3.0
