TL-DOS Lehrstuhlversuch
detector=R1406901
job_number=2015-10-14-001
irradiation_dose [mSv]=5.0

[BEGIN DATA]
time [sec] 	 temperature [K] 	 photoncount 
0.0	174.639128528	0.0
0.0102	175.967033268	0.0
0.0205	177.303260768	1.0
0.0307	178.621881124	1.0
0.041	179.948766049	1.0
0.0512	181.258166935	1.0
0.0614	182.563004615	1.0
0.0717	183.876020482	1.0
0.0819	185.171735058	3.0
0.0922	186.475570639	2.0
0.1024	187.762225897	1.0
0.1126	189.044397216	2.0
0.1229	190.334604659	0.0
0.1331	191.607811351	0.0
0.1434	192.88899798	2.0
0.1536	194.153302723	1.0
0.1638	195.41320142	2.0
0.1741	196.680996644	0.0
0.1843	197.932086438	0.0
0.1946	199.191017548	0.0
0.2048	200.43336003	2.0
0.215	201.671373002	0.0
0.2253	202.91714533	1.0
0.2355	204.146502419	2.0
0.2458	205.383564612	1.0
0.256	206.604326338	0.0
0.2662	207.820833762	0.0
0.2765	209.044965755	0.0
0.2867	210.252967658	0.0
0.297	211.46854082	0.0
0.3072	212.66809667	0.0
0.3174	213.86347212	0.0
0.3277	215.066339693	0.0
0.3379	216.253357371	0.0
0.3482	217.447814788	0.0
0.3584	218.62653313	0.0
0.3686	219.80114369	0.0
0.3789	220.983116226	1.0
0.3891	222.149514197	0.0
0.3994	223.323222671	2.0
0.4096	224.481465473	0.0
0.4198	225.63567185	0.0
0.4301	226.797112318	0.0
0.4403	227.943248767	0.0
0.4506	229.096568729	0.0
0.4608	230.234691673	0.0
0.471	231.368848308	0.0
0.4813	232.510113371	0.0
0.4915	233.636340262	0.0
0.5018	234.769625879	0.0
0.512	235.887978468	0.0
0.5222	237.002433646	1.0
0.5325	238.123873772	0.0
0.5427	239.230536953	0.0
0.553	240.344136244	0.0
0.5632	241.443061907	0.0
0.5734	242.538157863	0.0
0.5837	243.64011743	0.0
0.5939	244.727556744	0.0
0.6042	245.82181168	0.0
0.6144	246.901647884	0.0
0.6246	247.977720907	0.0
0.6349	249.060538313	0.0
0.6451	250.129087697	0.0
0.6554	251.204334309	0.0
0.6656	252.265412658	1.0
0.6758	253.322793195	0.0
0.6861	254.386800959	0.0
0.6963	255.43678855	0.0
0.7066	256.493357033	1.0
0.7168	257.536003369	0.0
0.727	258.575016128	0.0
0.7373	259.620540992	0.0
0.7475	260.652289229	0.0
0.7578	261.690504039	0.0
0.768	262.715038546	0.0
0.7782	263.736002594	0.0
0.7885	264.763365625	0.0
0.7987	265.777191343	0.0
0.809	266.797371304	0.0
0.8192	267.804108601	0.0
0.8294	268.807337463	0.0
0.8397	269.816854151	0.0
0.8499	270.813068683	0.0
0.8602	271.815527078	0.0
0.8704	272.804776322	0.0
0.8806	273.790578076	0.0
0.8909	274.782558429	0.0
0.9011	275.761467699	0.0
0.9114	276.74651237	1.0
0.9216	277.718577346	0.0
0.9318	278.687254718	0.0
0.9421	279.662003362	0.0
0.9523	280.62390798	0.0
0.9626	281.59184142	1.0
0.9728	282.547020636	0.0
0.983	283.498871095	0.0
0.9933	284.456687361	0.0
1.0035	285.401882715	0.0
1.0138	286.353002165	0.0
1.024	287.291588944	0.0
1.0342	288.22690479	1.0
1.0445	289.168082811	0.0
1.0547	290.096859158	0.0
1.065	291.031456693	0.0
1.0752	291.953739264	1.0
1.0854	292.87280772	0.0
1.0957	293.797636519	0.0
1.1059	294.710279074	2.0
1.1162	295.628641697	0.0
1.1264	296.534903279	0.0
1.1366	297.438006579	1.0
1.1469	298.346770159	1.0
1.1571	299.243559182	1.0
1.1674	300.14596891	1.0
1.1776	301.036487804	1.0
1.1878	301.923903279	0.0
1.1981	302.816880709	1.0
1.2083	303.698091593	1.0
1.2186	304.584825544	1.0
1.2288	305.459875217	2.0
1.239	306.331875381	5.0
1.2493	307.209340883	3.0
1.2595	308.075244235	1.0
1.2698	308.946574713	1.0
1.28	309.806423881	1.0
1.2902	310.663276513	1.0
1.3005	311.525499544	2.0
1.3107	312.376361272	3.0
1.321	313.232555852	4.0
1.3312	314.077468564	3.0
1.3414	314.919436791	3.0
1.3517	315.76668213	2.0
1.3619	316.602763522	4.0
1.3722	317.444085129	7.0
1.3824	318.274320845	1.0
1.3926	319.101663227	2.0
1.4029	319.93419105	5.0
1.4131	320.755748856	2.0
1.4234	321.582455849	11.0
1.4336	322.398269524	3.0
1.4438	323.211240125	5.0
1.4541	324.029306091	3.0
1.4643	324.836592601	7.0
1.4746	325.64893885	3.0
1.4848	326.45058101	5.0
1.495	327.249429483	8.0
1.5053	328.053284809	8.0
1.5155	328.846547929	7.0
1.5258	329.644782896	8.0
1.536	330.432499714	9.0
1.5462	331.217471374	13.0
1.5565	332.007362914	3.0
1.5667	332.786846245	6.0
1.577	333.571215056	6.0
1.5872	334.345248431	16.0
1.5974	335.116584333	15.0
1.6077	335.892754651	6.0
1.6179	336.658697562	14.0
1.6282	337.429441088	7.0
1.6384	338.190028713	14.0
1.6486	338.947965724	9.0
1.6589	339.710653173	10.0
1.6691	340.463290874	19.0
1.6794	341.220645799	12.0
1.6896	341.968021242	6.0
1.6998	342.712792115	16.0
1.7101	343.462230905	21.0
1.7203	344.201794522	18.0
1.7306	344.94599342	23.0
1.7408	345.680386189	17.0
1.751	346.412219632	25.0
1.7613	347.148639907	16.0
1.7715	347.87535655	22.0
1.7818	348.606627954	25.0
1.792	349.328263572	24.0
1.8022	350.047384322	34.0
1.8125	350.771012226	22.0
1.8227	351.48510506	30.0
1.833	352.203673534	31.0
1.8432	352.912773606	24.0
1.8534	353.619402496	30.0
1.8637	354.330460245	33.0
1.8739	355.032148558	48.0
1.8842	355.738234766	47.0
1.8944	356.435017047	42.0
1.9046	357.129371072	40.0
1.9149	357.828077023	55.0
1.9251	358.517576295	42.0
1.9354	359.211397065	41.0
1.9456	359.896075527	63.0
1.9558	360.578367915	46.0
1.9661	361.264936631	56.0
1.9763	361.942458598	64.0
1.9866	362.624226994	56.0
1.9968	363.297011894	76.0
2.007	363.967452167	70.0
2.0173	364.642094485	71.0
2.0275	365.307847204	67.0
2.0378	365.977772588	76.0
2.048	366.638870528	88.0
2.0582	367.29766457	93.0
2.0685	367.960587663	115.0
2.0787	368.614775579	95.0
2.089	369.273063676	110.0
2.0992	369.922677671	97.0
2.1094	370.570027789	129.0
2.1197	371.221435232	125.0
2.1299	371.864259237	141.0
2.1402	372.511112198	154.0
2.1504	373.149441736	158.0
2.1606	373.785546722	160.0
2.1709	374.425638554	142.0
2.1811	375.05729605	167.0
2.1914	375.692912516	164.0
2.2016	376.320153619	161.0
2.2118	376.945208813	210.0
2.2221	377.574181597	208.0
2.2323	378.194866559	187.0
2.2426	378.819441719	227.0
2.2528	379.435787004	233.0
2.263	380.049984353	251.0
2.2733	380.668031238	262.0
2.2835	381.277934269	270.0
2.2938	381.891659922	291.0
2.304	382.497298661	316.0
2.3142	383.100826776	322.0
2.3245	383.708137556	321.0
2.3347	384.30744595	394.0
2.345	384.910510563	364.0
2.3552	385.505628739	378.0
2.3654	386.098672955	406.0
2.3757	386.695434128	408.0
2.3859	387.284331925	433.0
2.3962	387.87692069	472.0
2.4064	388.461701057	453.0
2.4166	389.04444349	471.0
2.4269	389.630838314	499.0
2.4371	390.209506355	502.0
2.4474	390.791801249	566.0
2.4576	391.366423385	544.0
2.4678	391.939042988	567.0
2.4781	392.515251535	583.0
2.4883	393.083867523	623.0
2.4986	393.656047361	614.0
2.5088	394.220687725	650.0
2.519	394.783360342	638.0
2.5293	395.349559559	697.0
2.5395	395.908298107	671.0
2.5498	396.470538598	725.0
2.56	397.025370583	697.0
2.5702	397.578269003	725.0
2.5805	398.134632762	782.0
2.5907	398.683665452	818.0
2.601	399.236139253	754.0
2.6112	399.78133324	822.0
2.6214	400.324627251	798.0
2.6317	400.871326405	828.0
2.6419	401.410821837	835.0
2.6522	401.953698605	803.0
2.6624	402.489422017	800.0
2.6726	403.023278456	846.0
2.6829	403.560480889	863.0
2.6931	404.090604735	826.0
2.7034	404.62405118	884.0
2.7136	405.15046853	814.0
2.7238	405.675051339	874.0
2.7341	406.202922018	824.0
2.7443	406.723837072	821.0
2.7546	407.248017008	848.0
2.7648	407.765289953	838.0
2.775	408.280760224	778.0
2.7853	408.79946125	761.0
2.7955	409.311327479	798.0
2.8058	409.826401875	770.0
2.816	410.334689261	745.0
2.8262	410.841205288	726.0
2.8365	411.350895949	709.0
2.8467	411.85387054	669.0
2.857	412.359997568	670.0
2.8672	412.859455484	663.0
2.8774	413.357172811	620.0
2.8877	413.858009626	623.0
2.8979	414.352247035	631.0
2.9082	414.849582121	616.0
2.9184	415.340363944	588.0
2.9286	415.829435414	554.0
2.9389	416.321572182	553.0
2.9491	416.807224184	531.0
2.9594	417.295920052	506.0
2.9696	417.778176495	442.0
2.9798	418.258752294	484.0
2.9901	418.742340145	477.0
3.0003	419.219555876	439.0
3.0106	419.6997626	476.0
3.0208	420.173641756	418.0
3.031	420.645869464	417.0
3.0413	421.1210569	394.0
3.0515	421.589982908	389.0
3.0618	422.061847951	356.0
3.072	422.527495343	391.0
3.0822	422.991519974	409.0
3.0925	423.458452921	415.0
3.1027	423.919233206	386.0
3.113	424.382901472	404.0
3.1232	424.840460094	385.0
3.1334	425.296424144	444.0
3.1437	425.755245989	362.0
3.1539	426.208022051	462.0
3.1642	426.663635926	422.0
3.1744	427.113246289	443.0
3.1846	427.561289778	463.0
3.1949	428.012141421	444.0
3.2051	428.4570523	447.0
3.2154	428.904751698	460.0
3.2256	429.34655187	476.0
3.2358	429.786812388	474.0
3.2461	430.229832277	518.0
3.2563	430.667014601	512.0
3.2666	431.106937004	476.0
3.2768	431.541062657	544.0
3.287	431.9736754	561.0
3.2973	432.408999583	594.0
3.3075	432.838587604	580.0
3.3178	433.270868107	545.0
3.328	433.697452554	617.0
3.3382	434.122550373	632.0
3.3485	434.550312531	582.0
3.3587	434.97243817	606.0
3.369	435.397209519	652.0
3.3792	435.81638376	676.0
3.3894	436.234097197	623.0
3.3997	436.654428689	669.0
3.4099	437.069221576	620.0
3.4202	437.486614214	662.0
3.4304	437.898506971	685.0
3.4406	438.308964299	635.0
3.4509	438.721994205	724.0
3.4611	439.129581717	693.0
3.4714	439.539723819	702.0
3.4816	439.944461579	730.0
3.4918	440.347788845	732.0
3.5021	440.753644	738.0
3.5123	441.154151301	726.0
3.5226	441.557168817	720.0
3.5328	441.954875869	753.0
3.543	442.351196929	713.0
3.5533	442.750001967	799.0
3.5635	443.143552048	754.0
3.5738	443.539568739	779.0
3.584	443.930367214	714.0
3.5942	444.319803773	793.0
3.6045	444.711681161	757.0
3.6147	445.098394875	779.0
3.625	445.487532352	783.0
3.6352	445.871542259	757.0
3.6454	446.254213909	765.0
3.6557	446.639283987	727.0
3.6659	447.01928009	730.0
3.6762	447.401657852	769.0
3.6864	447.778997116	728.0
3.6966	448.155021368	712.0
3.7069	448.533402387	769.0
3.7171	448.90679757	733.0
3.7274	449.282533041	729.0
3.7376	449.653317536	767.0
3.7478	450.022809865	754.0
3.7581	450.394618019	743.0
3.7683	450.761526947	718.0
3.7786	451.13073551	722.0
3.7888	451.495079101	741.0
3.799	451.85815297	738.0
3.8093	452.223502438	701.0
3.8195	452.584037784	720.0
3.8298	452.946832817	709.0
3.84	453.304847389	664.0
3.8502	453.661614295	674.0
3.8605	454.02061727	646.0
3.8707	454.374889749	674.0
3.881	454.731382663	664.0
3.8912	455.083178157	656.0
3.9014	455.433747658	716.0
3.9117	455.786514385	663.0
3.9219	456.13463279	659.0
3.9322	456.484933059	604.0
3.9424	456.830617506	684.0
3.9526	457.175097258	660.0
3.9629	457.521736067	646.0
3.9731	457.863807301	647.0
3.9834	458.208022497	617.0
3.9936	458.547702052	584.0
4.0038	458.88619784	587.0
4.0141	459.226815179	638.0
4.0243	459.562944287	599.0
4.0346	459.901180114	570.0
4.0448	460.23495909	593.0
4.055	460.56757486	568.0
4.0653	460.902275329	559.0
4.0755	461.232565532	585.0
4.0858	461.564925857	651.0
4.096	461.892906752	598.0
4.1062	462.219744647	593.0
4.1165	462.548631028	582.0
4.1267	462.873183753	561.0
4.137	463.199770641	577.0
4.1472	463.522054173	614.0
4.1574	463.843214561	616.0
4.1677	464.16638785	571.0
4.1779	464.485302763	608.0
4.1882	464.806216504	583.0
4.1984	465.122901642	584.0
4.2086	465.438483147	620.0
4.2189	465.756042587	598.0
4.2291	466.069417623	585.0
4.2394	466.384756765	624.0
4.2496	466.695940759	563.0
4.2598	467.006040291	645.0
4.2701	467.3180834	622.0
4.2803	467.626014792	658.0
4.2906	467.935876171	651.0
4.3008	468.241654583	625.0
4.311	468.54636737	556.0
4.3213	468.852989971	605.0
4.3315	469.155572281	613.0
4.3418	469.460051053	634.0
4.352	469.760517781	521.0
4.3622	470.059937397	644.0
4.3725	470.361233651	565.0
4.3827	470.658559798	633.0
4.393	470.957749463	570.0
4.4032	471.252996778	596.0
4.4134	471.547215169	571.0
4.4237	471.8432776	642.0
4.4339	472.135438889	588.0
4.4442	472.429431324	565.0
4.4544	472.719549893	583.0
4.4646	473.00865741	552.0
4.4749	473.299576935	591.0
4.4851	473.586663084	613.0
4.4954	473.875548571	579.0
4.5056	474.160627484	620.0
4.5158	474.44471291	605.0
4.5261	474.730578866	574.0
4.5363	475.012678036	604.0
4.5466	475.296545288	568.0
4.5568	475.576672089	632.0
4.567	475.855822661	563.0
4.5773	476.136722834	561.0
4.5875	476.413921654	572.0
4.5978	476.692857842	586.0
4.608	476.968118556	590.0
4.6182	477.242419998	575.0
4.6285	477.518440648	557.0
4.6387	477.790824242	584.0
4.649	478.064915024	518.0
4.6592	478.335394178	568.0
4.6694	478.604930725	530.0
4.6797	478.876156615	539.0
4.6899	479.143808628	585.0
4.7002	479.413138174	541.0
4.7104	479.67891883	534.0
4.7206	479.943773251	573.0
4.7309	480.210287672	551.0
4.7411	480.473290296	517.0
4.7514	480.737941313	546.0
4.7616	480.999105088	578.0
4.7718	481.259358718	543.0
4.7821	481.521243512	507.0
4.7923	481.779677512	547.0
4.8026	482.039731271	539.0
4.8128	482.296358365	528.0
4.823	482.552091125	522.0
4.8333	482.809426712	521.0
4.8435	483.063371451	564.0
4.8538	483.318907811	533.0
4.864	483.57107703	514.0
4.8742	483.822367451	493.0
4.8845	484.075232857	541.0
4.8947	484.324766316	504.0
4.905	484.575863749	524.0
4.9152	484.823652532	547.0
4.9254	485.070577782	529.0
4.9357	485.319050658	533.0
4.9459	485.564249467	485.0
4.9562	485.810985082	494.0
4.9664	486.054469521	508.0
4.9766	486.297105428	522.0
4.9869	486.541262076	523.0
4.9971	486.782201532	526.0
5.0074	487.024651098	502.0
5.0176	487.263905964	483.0
5.0278	487.502327037	463.0
5.0381	487.742242436	467.0
5.0483	487.978996528	499.0
5.0586	488.217234497	466.0
5.0688	488.452333263	506.0
5.079	488.686612719	523.0
5.0893	488.922360543	497.0
5.0995	489.155001975	488.0
5.1098	489.389101508	513.0
5.12	489.620116368	475.0
5.1302	489.850326151	499.0
5.1405	490.081978795	517.0
5.1507	490.310579008	480.0
5.161	490.540611993	456.0
5.1712	490.76761389	487.0
5.1814	490.993824694	450.0
5.1917	491.221453295	464.0
5.2019	491.44608249	498.0
5.2122	491.672119568	495.0
5.2224	491.89517821	476.0
5.2326	492.117459502	459.0
5.2429	492.341133962	463.0
5.2531	492.561861119	453.0
5.2634	492.783971702	468.0
5.2736	493.003155588	511.0
5.2838	493.221575628	477.0
5.2941	493.441364634	477.0
5.3043	493.658257535	489.0
5.3146	493.876509831	444.0
5.3248	494.091886269	477.0
5.335	494.306512131	513.0
5.3453	494.522483178	489.0
5.3555	494.735608428	534.0
5.3658	494.950069459	487.0
5.376	495.161704589	472.0
5.3862	495.37260218	461.0
5.3965	495.584821591	477.0
5.4067	495.794244637	472.0
5.417	496.004980262	506.0
5.4272	496.212939074	472.0
5.4374	496.420173159	488.0
5.4477	496.628706102	482.0
5.4579	496.834491257	509.0
5.4682	497.041566188	517.0
5.4784	497.245912544	471.0
5.4886	497.449546761	521.0
5.4989	497.654457275	486.0
5.5091	497.856667732	449.0
5.5194	498.060145561	486.0
5.5296	498.260942212	454.0
5.5398	498.461039095	509.0
5.5501	498.662390104	463.0
5.5603	498.861087959	531.0
5.5706	499.061031171	460.0
5.5808	499.258339779	476.0
5.591	499.454960776	475.0
5.6013	499.652814112	480.0
5.6115	499.848060383	489.0
5.6218	500.044530377	516.0
5.632	500.238411534	462.0
5.6422	500.431617024	481.0
5.6525	500.626033446	463.0
5.6627	500.81788809	428.0
5.673	501.0109452	479.0
5.6832	501.201458444	473.0
5.6934	501.391307757	471.0
5.7037	501.582346967	472.0
5.7139	501.770868901	444.0
5.7242	501.960572412	424.0
5.7344	502.147776246	479.0
5.7446	502.334327683	437.0
5.7549	502.522048348	439.0
5.7651	502.707295463	413.0
5.7754	502.893703631	451.0
5.7856	503.077655544	430.0
5.7958	503.260966392	424.0
5.8061	503.445426158	430.0
5.8163	503.627455342	418.0
5.8266	503.81062541	405.0
5.8368	503.99138189	462.0
5.847	504.171508442	431.0
5.8573	504.352763954	431.0
5.8675	504.531631105	415.0
5.8778	504.711619322	396.0
5.888	504.889235878	387.0
5.8982	505.066233449	400.0
5.9085	505.244340367	388.0
5.9187	505.420100414	402.0
5.929	505.596962052	363.0
5.9392	505.771493227	369.0
5.9494	505.945416169	391.0
5.9597	506.120429189	340.0
5.9699	506.293136104	382.0
5.9802	506.466925476	359.0
5.9904	506.638424867	372.0
6.0006	506.80932659	324.0
6.0109	506.981299455	313.0
6.0211	507.151006275	329.0
6.0314	507.321776748	328.0
6.0416	507.49029702	317.0
6.0518	507.658230006	327.0
6.0621	507.827215527	323.0
6.0723	507.993974366	322.0
6.0826	508.161778382	315.0
6.0928	508.327371285	279.0
6.103	508.492387104	260.0
6.1133	508.658437174	270.0
6.1235	508.822299242	295.0
6.1338	508.987188331	269.0
6.144	509.149904717	267.0
6.1542	509.312054042	239.0
6.1645	509.475219654	280.0
6.1747	509.636235271	266.0
6.185	509.798260068	246.0
6.1952	509.958149904	251.0
6.2054	510.117482531	248.0
6.2157	510.277813789	230.0
6.2259	510.436032401	238.0
6.2362	510.595242662	271.0
6.2464	510.752355049	222.0
6.2566	510.908919905	228.0
6.2669	511.066466046	215.0
6.2771	511.221936239	254.0
6.2874	511.378380856	211.0
6.2976	511.53276404	178.0
6.3078	511.686609205	197.0
6.3181	511.841418609	199.0
6.3283	511.994188127	201.0
6.3386	512.147915141	195.0
6.3488	512.299616532	183.0
6.359	512.45078925	161.0
6.3693	512.602909456	175.0
6.3795	512.753025212	161.0
6.3898	512.904081831	175.0
6.4	513.053148014	161.0
6.4102	513.201694708	170.0
6.4205	513.351172431	118.0
6.4307	513.498680523	147.0
6.441	513.647113134	146.0
6.4512	513.793589886	125.0
6.4614	513.939556172	129.0
6.4717	514.086437315	124.0
6.4819	514.231383041	126.0
6.4922	514.377237227	148.0
6.5024	514.521169527	112.0
6.5126	514.664600231	124.0
6.5229	514.808929898	120.0
6.5331	514.951357769	101.0
6.5434	515.094678319	102.0
6.5536	515.236110369	100.0
6.5638	515.377049535	107.0
6.5741	515.518872049	93.0
6.5843	515.658825802	93.0
6.5946	515.799656728	83.0
6.6048	515.938631959	85.0
6.615	516.077122868	90.0
6.6253	516.216481781	95.0
6.6355	516.354004395	85.0
6.6458	516.492388944	67.0
6.656	516.628950033	82.0
6.6662	516.765035214	63.0
6.6765	516.90197332	69.0
6.6867	517.037107026	58.0
6.697	517.173087695	53.0
6.7072	517.307276579	64.0
6.7174	517.440997821	51.0
6.7277	517.575557172	41.0
6.7379	517.708343468	50.0
6.7482	517.841962014	52.0
6.7584	517.973819901	51.0
6.7686	518.105218268	66.0
6.7789	518.237440187	46.0
6.7891	518.367919849	45.0
6.7994	518.499217304	53.0
6.8096	518.628784685	53.0
6.8198	518.757900529	38.0
6.8301	518.887825618	47.0
6.8403	519.016038716	26.0
6.8506	519.145055401	45.0
6.8608	519.272372064	42.0
6.871	519.399245034	40.0
6.8813	519.526913192	43.0
6.8915	519.652899097	39.0
6.9018	519.77967463	39.0
6.912	519.904779673	33.0
6.9222	520.029448731	30.0
6.9325	520.154899162	31.0
6.9427	520.278696564	33.0
6.953	520.403269877	31.0
6.9632	520.526201718	21.0
6.9734	520.648705147	27.0
6.9837	520.771976377	18.0
6.9939	520.893623291	32.0
7.0042	521.016032639	29.0
7.0144	521.136829028	27.0
7.0246	521.257204448	29.0
7.0349	521.378334331	23.0
7.0451	521.497868114	21.0
7.0554	521.618151087	24.0
7.0656	521.73684912	23.0
7.0758	521.855133495	19.0
7.0861	521.974159229	24.0
7.0963	522.091616589	17.0
7.1066	522.209810123	20.0
7.1168	522.32644625	18.0
7.127	522.442675906	19.0
7.1373	522.559634041	18.0
7.1475	522.675051047	28.0
7.1578	522.791191439	20.0
7.168	522.905801478	25.0
7.1782	523.020012105	13.0
7.1885	523.134938558	19.0
7.1987	523.248350653	17.0
7.209	523.362473569	21.0
7.2192	523.475092714	11.0
7.2294	523.587319387	12.0
7.2397	523.70024945	15.0
7.2499	523.811691461	9.0
7.2602	523.923831945	11.0
7.2704	524.034494781	10.0
7.2806	524.144771962	9.0
7.2909	524.255740315	14.0
7.3011	524.365246465	11.0
7.3114	524.475438955	8.0
7.3216	524.584179465	11.0
7.3318	524.692541018	6.0
7.3421	524.801581738	15.0
7.3523	524.909185654	16.0
7.3626	525.017463988	7.0
7.3728	525.124315564	4.0
7.383	525.230794767	5.0
7.3933	525.337941338	8.0
7.4035	525.443676065	7.0
7.4138	525.550073494	9.0
7.424	525.655068949	11.0
7.4342	525.7596985	3.0
7.4445	525.864983826	6.0
7.4547	525.968881833	9.0
7.465	526.073431029	10.0
7.4752	526.176602607	5.0
7.4854	526.279414636	7.0
7.4957	526.382871048	16.0
7.5059	526.48496424	2.0
7.5162	526.587697311	4.0
7.5264	526.689076693	8.0
7.5366	526.790102772	8.0
7.5469	526.891762041	9.0
7.5571	526.992081771	6.0
7.5674	527.093030263	7.0
7.5776	527.192648582	8.0
7.5878	527.291919735	4.0
7.5981	527.391813079	2.0
7.6083	527.490390152	6.0
7.6186	527.589585067	6.0
7.6288	527.687472913	3.0
7.639	527.785019626	10.0
7.6493	527.88317772	3.0
7.6595	527.98004241	5.0
7.6698	528.077514207	8.0
7.68	528.173701642	3.0
7.6902	528.269553868	7.0
7.7005	528.366006857	5.0
7.7107	528.461188908	7.0
7.721	528.556967521	3.0
7.7312	528.651484082	4.0
7.7414	528.745671257	6.0
7.7517	528.840448759	4.0
7.7619	528.933977401	7.0
7.7722	529.028092241	6.0
7.7824	529.120966954	5.0
