TL-DOS Lehrstuhlversuch
detector=R1406906
job_number=2015-11-05-006
irradiation_dose [mSv]=0.07

[BEGIN DATA]
time [sec] 	 temperature [K] 	 photoncount 
0.0	118.166655376	0.0
0.0102	120.054131267	0.0
0.0205	121.951938769	2.0
0.0307	123.823261901	1.0
0.041	125.704828227	0.0
0.0512	127.560136832	2.0
0.0614	129.407528367	0.0
0.0717	131.2650321	1.0
0.0819	133.096613912	0.0
0.0922	134.938221383	1.0
0.1024	136.754128769	2.0
0.1126	138.56228722	3.0
0.1229	140.380343116	0.0
0.1331	142.173027596	1.0
0.1434	143.975524819	0.0
0.1536	145.75286775	1.0
0.1638	147.522626311	1.0
0.1741	149.302072124	2.0
0.1843	151.056685334	3.0
0.1946	152.820902894	1.0
0.2048	154.560500364	0.0
0.215	156.292674534	1.0
0.2253	158.034330227	1.0
0.2355	159.751680687	2.0
0.2458	161.478431531	1.0
0.256	163.181085141	0.0
0.2662	164.876473099	0.0
0.2765	166.581141223	0.0
0.2867	168.262020283	0.0
0.297	169.952100091	1.0
0.3072	171.618594419	0.0
0.3174	173.277977395	0.0
0.3277	174.946443454	0.0
0.3379	176.591625658	0.0
0.3482	178.245813213	0.0
0.3584	179.876916174	0.0
0.3686	181.501058807	0.0
0.3789	183.134091625	0.0
0.3891	184.744335068	0.0
0.3994	186.363392615	0.0
0.4096	187.959855816	0.0
0.4198	189.549506506	0.0
0.4301	191.147858579	0.0
0.4403	192.723905256	0.0
0.4506	194.308578851	0.0
0.4608	195.871137937	0.0
0.471	197.427029189	0.0
0.4813	198.991437033	0.0
0.4915	200.534013181	0.0
0.5018	202.085033037	0.0
0.512	203.614408031	0.0
0.5222	205.137256795	0.0
0.5325	206.668441284	0.0
0.5427	208.178257717	0.0
0.553	209.696338539	0.0
0.5632	211.193234171	0.0
0.5734	212.683742171	1.0
0.5837	214.18240887	0.0
0.5939	215.660161307	0.0
0.6042	217.146002622	0.0
0.6144	218.611108657	0.0
0.6246	220.069962714	0.0
0.6349	221.536802204	0.0
0.6451	222.983171589	0.0
0.6554	224.437458068	0.0
0.6656	225.871449622	0.0
0.6758	227.299321972	0.0
0.6861	228.735010168	0.0
0.6963	230.150662982	0.0
0.7066	231.574064755	0.0
0.7168	232.977602607	0.0
0.727	234.375151209	0.0
0.7373	235.780349671	0.0
0.7475	237.165938243	0.0
0.7578	238.55911121	0.0
0.768	239.932842106	0.0
0.7782	241.300710945	1.0
0.7885	242.676067184	0.0
0.7987	244.03222999	0.0
0.809	245.395816119	0.0
0.8192	246.740373069	0.0
0.8294	248.079192456	1.0
0.8397	249.425340233	1.0
0.8499	250.752702186	0.0
0.8602	252.087329815	0.0
0.8704	253.403332387	1.0
0.8806	254.713719245	0.0
0.8909	256.031278859	0.0
0.9011	257.330451605	0.0
0.9114	258.636735725	0.0
0.9216	259.92479033	0.0
0.9318	261.20734848	0.0
0.9421	262.496927059	1.0
0.9523	263.768509253	1.0
0.9626	265.047051796	0.0
0.9728	266.307751963	1.0
0.983	267.563072405	0.0
0.9933	268.825264183	0.0
1.0035	270.069841765	0.0
1.0138	271.321231879	0.0
1.024	272.555158537	0.0
1.0342	273.783819718	0.0
1.0445	275.019206309	0.0
1.0547	276.237352776	0.0
1.065	277.462167098	0.0
1.0752	278.669888835	0.0
1.0854	279.872456919	0.0
1.0957	281.081607584	0.0
1.1059	282.273884255	0.0
1.1162	283.472687175	2.0
1.1264	284.654760506	0.0
1.1366	285.831789632	0.0
1.1469	287.015261545	0.0
1.1571	288.182217817	0.0
1.1674	289.35556174	0.0
1.1776	290.51253136	0.0
1.1878	291.664563899	0.0
1.1981	292.8229024	0.0
1.2083	293.965076003	0.0
1.2186	295.113501602	0.0
1.2288	296.245900639	0.0
1.239	297.373467444	1.0
1.2493	298.507206291	0.0
1.2595	299.625123535	2.0
1.2698	300.74916	0.0
1.28	301.857510261	0.0
1.2902	302.961130912	0.0
1.3005	304.070792529	0.0
1.3107	305.164968545	1.0
1.321	306.26513383	2.0
1.3312	307.349946038	0.0
1.3414	308.430129079	1.0
1.3517	309.516224794	0.0
1.3619	310.587163776	1.0
1.3722	311.663964834	0.0
1.3824	312.725738867	0.0
1.3926	313.782982043	1.0
1.4029	314.846012326	0.0
1.4131	315.89420776	0.0
1.4234	316.948140775	0.0
1.4336	317.987365896	0.0
1.4438	319.022156381	1.0
1.4541	320.062611073	1.0
1.4643	321.088545963	1.0
1.4746	322.120096586	0.0
1.4848	323.137251666	1.0
1.495	324.150066289	0.0
1.5053	325.168424827	3.0
1.5155	326.172571921	1.0
1.5258	327.182215487	0.0
1.536	328.177769228	3.0
1.5462	329.16907469	0.0
1.5565	330.165806332	0.0
1.5667	331.148628338	0.0
1.577	332.136830086	1.0
1.5872	333.111241237	2.0
1.5974	334.081494329	3.0
1.6077	335.057058364	1.0
1.6179	336.019008163	0.0
1.6282	336.986223455	2.0
1.6384	337.93994102	0.0
1.6486	338.889588831	1.0
1.6589	339.844434797	2.0
1.6691	340.785955652	2.0
1.6794	341.732630177	1.0
1.6896	342.666093627	0.0
1.6998	343.595573752	2.0
1.7101	344.530141638	1.0
1.7203	345.4516674	3.0
1.7306	346.378237383	2.0
1.7408	347.291876854	2.0
1.751	348.201617594	0.0
1.7613	349.116338047	7.0
1.7715	350.018293351	3.0
1.7818	350.925185752	2.0
1.792	351.819422247	2.0
1.8022	352.709842808	0.0
1.8125	353.605137328	1.0
1.8227	354.487937793	3.0
1.833	355.375570505	2.0
1.8432	356.250816085	2.0
1.8534	357.12232677	3.0
1.8637	357.998607906	5.0
1.8739	358.862660323	7.0
1.8842	359.731442365	3.0
1.8944	360.588100339	4.0
1.9046	361.441102739	5.0
1.9149	362.298774277	1.0
1.9251	363.144476799	1.0
1.9354	363.994808502	6.0
1.9456	364.833273618	4.0
1.9558	365.668160791	9.0
1.9661	366.507617945	3.0
1.9763	367.335360269	10.0
1.9866	368.167633464	4.0
1.9968	368.988292082	4.0
2.007	369.805448743	5.0
2.0173	370.627078332	5.0
2.0275	371.437241878	5.0
2.0378	372.251840074	6.0
2.048	373.055070351	6.0
2.0582	373.854873043	6.0
2.0685	374.659053671	3.0
2.0787	375.452011761	9.0
2.089	376.249310321	4.0
2.0992	377.035482384	4.0
2.1094	377.818299653	7.0
2.1197	378.605401884	6.0
2.1299	379.38151991	8.0
2.1402	380.161886228	6.0
2.1504	380.931362342	6.0
2.1606	381.697554908	12.0
2.1709	382.467941436	4.0
2.1811	383.227577031	13.0
2.1914	383.991370696	10.0
2.2016	384.744505434	5.0
2.2118	385.494426355	7.0
2.2221	386.248452172	9.0
2.2323	386.991955373	10.0
2.2426	387.739528341	14.0
2.2528	388.476668744	10.0
2.263	389.210663582	17.0
2.2733	389.94867614	6.0
2.2835	390.676389552	12.0
2.2938	391.4080863	14.0
2.304	392.12957204	12.0
2.3142	392.847979018	5.0
2.3245	393.570318392	12.0
2.3347	394.282577342	11.0
2.345	394.998735034	10.0
2.3552	395.70489857	11.0
2.3654	396.408048728	15.0
2.3757	397.115047768	15.0
2.3859	397.812180463	13.0
2.3962	398.513129103	7.0
2.4064	399.204295832	11.0
2.4166	399.892513178	13.0
2.4269	400.584497668	13.0
2.4371	401.266825345	24.0
2.4474	401.952887927	11.0
2.4576	402.629376337	16.0
2.4678	403.302978	20.0
2.4781	403.980266805	10.0
2.4883	404.648103878	15.0
2.4986	405.319596537	17.0
2.5088	405.981718352	13.0
2.519	406.641014726	20.0
2.5293	407.303919937	19.0
2.5395	407.957574143	10.0
2.5498	408.614806302	14.0
2.56	409.262866625	10.0
2.5702	409.908161511	15.0
2.5805	410.556988593	21.0
2.5907	411.196761134	9.0
2.601	411.840035643	7.0
2.6112	412.474333098	7.0
2.6214	413.105923846	13.0
2.6317	413.740971777	10.0
2.6419	414.367157458	6.0
2.6522	414.996770736	10.0
2.6624	415.617597606	16.0
2.6726	416.235775251	8.0
2.6829	416.857336658	6.0
2.6931	417.470224024	13.0
2.7034	418.086466194	14.0
2.7136	418.694108554	7.0
2.7238	419.29915795	15.0
2.7341	419.907519248	6.0
2.7443	420.507390714	14.0
2.7546	421.11054574	11.0
2.7648	421.705283589	13.0
2.775	422.297483541	8.0
2.7853	422.89292506	4.0
2.7955	423.480057046	12.0
2.8058	424.070402859	9.0
2.816	424.65251025	4.0
2.8262	425.232133643	11.0
2.8365	425.81492976	5.0
2.8467	426.389592815	15.0
2.857	426.967401444	7.0
2.8672	427.537146611	7.0
2.8774	428.104460532	11.0
2.8877	428.674879799	10.0
2.8979	429.237338725	8.0
2.9082	429.802876423	13.0
2.9184	430.360521903	7.0
2.9286	430.915787769	8.0
2.9389	431.474093032	5.0
2.9491	432.024607009	12.0
2.9594	432.578134373	15.0
2.9696	433.123937127	20.0
2.9798	433.667410803	12.0
2.9901	434.213859329	24.0
3.0003	434.752682031	12.0
3.0106	435.294454126	13.0
3.0208	435.828665657	7.0
3.031	436.360597574	10.0
3.0413	436.895441163	13.0
3.0515	437.422820879	20.0
3.0618	437.953087351	7.0
3.072	438.475953824	12.0
3.0822	438.996589093	13.0
3.0925	439.520074201	16.0
3.1027	440.036253945	18.0
3.113	440.555259139	13.0
3.1232	441.067021488	19.0
3.1334	441.576600018	14.0
3.1437	442.088967864	9.0
3.1539	442.594185491	21.0
3.1642	443.102168563	8.0
3.1744	443.603062606	10.0
3.1846	444.101819209	12.0
3.1949	444.60330589	27.0
3.2051	445.097794202	16.0
3.2154	445.59498923	22.0
3.2256	446.085245778	17.0
3.2358	446.573410278	13.0
3.2461	447.064246879	16.0
3.2563	447.548233735	24.0
3.2666	448.034869823	7.0
3.2768	448.514714785	13.0
3.287	448.992512128	16.0
3.2973	449.472924824	16.0
3.3075	449.946633243	14.0
3.3178	450.422934633	9.0
3.328	450.89258912	10.0
3.3382	451.360239472	13.0
3.3485	451.830449636	8.0
3.3587	452.294097901	13.0
3.369	452.760284071	15.0
3.3792	453.219964498	9.0
3.3894	453.677683353	19.0
3.3997	454.137907655	18.0
3.4099	454.591709415	12.0
3.4202	455.047995181	6.0
3.4304	455.497913367	10.0
3.4406	455.945911639	18.0
3.4509	456.396362151	11.0
3.4611	456.840526515	13.0
3.4714	457.287122133	8.0
3.4816	457.7274854	8.0
3.4918	458.165969525	13.0
3.5021	458.606853812	8.0
3.5123	459.04158545	23.0
3.5226	459.47869671	11.0
3.5328	459.909707974	19.0
3.543	460.338880005	10.0
3.5533	460.770401225	15.0
3.5635	461.19590046	15.0
3.5738	461.623728781	13.0
3.584	462.045586652	10.0
3.5942	462.46564435	13.0
3.6045	462.888001347	10.0
3.6147	463.304464248	14.0
3.625	463.723206772	10.0
3.6352	464.13610564	16.0
3.6454	464.547242566	14.0
3.6557	464.96062996	7.0
3.6659	465.368248432	15.0
3.6762	465.778098114	16.0
3.6864	466.182228242	12.0
3.6966	466.584633846	15.0
3.7069	466.989242126	12.0
3.7171	467.388203997	6.0
3.7274	467.789349695	13.0
3.7376	468.184897306	14.0
3.7478	468.578757015	8.0
3.7581	468.974772622	6.0
3.7683	469.365261734	11.0
3.7786	469.757888293	16.0
3.7888	470.145035653	9.0
3.799	470.530530957	11.0
3.8093	470.918136374	10.0
3.8195	471.300332663	11.0
3.8298	471.684621006	12.0
3.84	472.063546511	9.0
3.8502	472.440855045	11.0
3.8605	472.820228879	16.0
3.8707	473.194308459	11.0
3.881	473.570435664	11.0
3.8912	473.941313922	14.0
3.9014	474.310609548	11.0
3.9117	474.681926615	7.0
3.9219	475.04806186	11.0
3.9322	475.416201246	13.0
3.9424	475.779203156	23.0
3.9526	476.140656045	16.0
3.9629	476.504087445	10.0
3.9731	476.86244707	12.0
3.9834	477.222768273	8.0
3.9936	477.578061106	11.0
4.0038	477.931837815	11.0
4.0141	478.287551016	8.0
4.0243	478.638300152	16.0
4.0346	478.990969208	20.0
4.0448	479.338716681	11.0
4.055	479.684980228	8.0
4.0653	480.033139142	10.0
4.0755	480.376439413	12.0
4.0858	480.72161883	9.0
4.096	481.061981185	7.0
4.1062	481.400891127	9.0
4.1165	481.741656184	10.0
4.1267	482.077665782	12.0
4.137	482.415514619	7.0
4.1472	482.748648692	10.0
4.1574	483.080361198	10.0
4.1677	483.413889423	16.0
4.1779	483.742763179	9.0
4.1882	484.073437114	10.0
4.1984	484.399496414	11.0
4.2086	484.724164336	8.0
4.2189	485.050609416	8.0
4.2291	485.372498875	11.0
4.2394	485.696150283	12.0
4.2496	486.015285056	6.0
4.2598	486.333058	7.0
4.2701	486.652570361	16.0
4.2803	486.967623848	14.0
4.2906	487.284401866	9.0
4.3008	487.596759168	2.0
4.311	487.907783563	11.0
4.3213	488.220510435	8.0
4.3315	488.528873126	2.0
4.3418	488.838923723	7.0
4.352	489.144647489	10.0
4.3622	489.449066654	7.0
4.3725	489.75515214	12.0
4.3827	490.056966127	8.0
4.393	490.360432175	9.0
4.4032	490.65966328	11.0
4.4134	490.95761749	9.0
4.4237	491.257202634	6.0
4.4339	491.552606993	11.0
4.4442	491.849628327	11.0
4.4544	492.142504656	8.0
4.4646	492.434131208	10.0
4.4749	492.727354057	7.0
4.4851	493.016484909	8.0
4.4954	493.307198396	6.0
4.5056	493.593854906	8.0
4.5158	493.87928818	6.0
4.5261	494.16628385	15.0
4.5363	494.449274426	8.0
4.5466	494.733814026	6.0
4.5568	495.014382807	10.0
4.567	495.29375433	10.0
4.5773	495.574655068	10.0
4.5875	495.851635768	8.0
4.5978	496.130132597	11.0
4.608	496.404742934	4.0
4.6182	496.678181439	8.0
4.6285	496.953116684	7.0
4.6387	497.22421514	8.0
4.649	497.496797527	12.0
4.6592	497.76557596	14.0
4.6694	498.033207447	11.0
4.6797	498.302303888	9.0
4.6899	498.567645021	17.0
4.7002	498.834438572	7.0
4.7104	499.097508952	8.0
4.7206	499.359456745	5.0
4.7309	499.622838381	14.0
4.7411	499.88254446	6.0
4.7514	500.143672112	15.0
4.7616	500.401155663	13.0
4.7718	500.657540466	14.0
4.7821	500.915328661	9.0
4.7923	501.169519359	4.0
4.8026	501.425101438	9.0
4.8128	501.677116806	9.0
4.823	501.928056762	6.0
4.8333	502.180370305	4.0
4.8435	502.42916275	10.0
4.8538	502.679317028	7.0
4.864	502.925980342	8.0
4.8742	503.171591082	7.0
4.8845	503.418546238	9.0
4.8947	503.662055074	11.0
4.905	503.906896822	9.0
4.9152	504.148321743	7.0
4.9254	504.388716443	11.0
4.9357	504.630427009	6.0
4.9459	504.868764444	11.0
4.9562	505.108406484	6.0
4.9664	505.34470426	3.0
4.9766	505.579993694	11.0
4.9869	505.816571048	5.0
4.9971	506.049846907	7.0
5.0074	506.284399665	7.0
5.0176	506.515679181	6.0
5.0278	506.74597177	8.0
5.0381	506.977524927	12.0
5.0483	507.205846703	7.0
5.0586	507.43541826	9.0
5.0688	507.66178609	6.0
5.079	507.88718795	3.0
5.0893	508.113823609	7.0
5.0995	508.337296512	6.0
5.1098	508.561992654	7.0
5.12	508.783553107	7.0
5.1302	509.004168104	6.0
5.1405	509.225990698	7.0
5.1507	509.444717703	2.0
5.161	509.66464197	8.0
5.1712	509.881497139	4.0
5.1814	510.097426933	5.0
5.1917	510.314538677	6.0
5.2019	510.528620573	3.0
5.2122	510.743874304	6.0
5.2224	510.956124116	4.0
5.2326	511.167468205	4.0
5.2429	511.379969144	11.0
5.2531	511.589504579	6.0
5.2634	511.800186963	2.0
5.2736	512.007929223	8.0
5.2838	512.214784994	2.0
5.2941	512.422773046	3.0
5.3043	512.627858574	4.0
5.3146	512.834066693	2.0
5.3248	513.037397127	5.0
5.335	513.239859899	3.0
5.3453	513.443430906	4.0
5.3555	513.644161029	1.0
5.3658	513.845989903	5.0
5.376	514.045002205	5.0
5.3862	514.243165272	6.0
5.3965	514.442413038	1.0
5.4067	514.638880252	5.0
5.417	514.836422883	2.0
5.4272	515.031208758	4.0
5.4374	515.225163432	3.0
5.4477	515.42017977	2.0
5.4579	515.612474607	5.0
5.4682	515.805822021	3.0
5.4784	515.996471225	4.0
5.4886	516.186306881	4.0
5.4989	516.377181654	1.0
5.5091	516.565392722	3.0
5.5194	516.754634014	7.0
5.5296	516.941234398	2.0
5.5398	517.127038511	1.0
5.5501	517.313859673	3.0
5.5603	517.4980737	0.0
5.5706	517.683296072	5.0
5.5808	517.86593362	0.0
5.591	518.047791808	0.0
5.6013	518.230645446	1.0
5.6115	518.410947317	2.0
5.6218	518.592236118	0.0
5.632	518.77099499	1.0
5.6422	518.948991052	0.0
5.6525	519.127961425	2.0
5.6627	519.304434221	3.0
5.673	519.48187299	1.0
5.6832	519.656835556	3.0
5.6934	519.831051514	1.0
5.7037	520.006221089	2.0
5.7139	520.17894613	2.0
5.7242	520.352616629	1.0
5.7344	520.523863512	0.0
5.7446	520.694379643	2.0
5.7549	520.865829139	3.0
5.7651	521.034886015	1.0
5.7754	521.204868271	1.0
5.7856	521.372478382	1.0
5.7958	521.539373258	0.0
5.8061	521.707181678	1.0
5.8163	521.872648291	0.0
5.8266	522.039020631	1.0
5.8368	522.203071203	2.0
5.847	522.36642173	2.0
5.8573	522.5306664	4.0
5.8675	522.692618996	4.0
5.8778	522.855458083	1.0
5.888	523.016024711	0.0
5.8982	523.17590616	1.0
5.9085	523.336662764	0.0
5.9187	523.49517597	0.0
5.929	523.654556841	1.0
5.9392	523.811713512	0.0
5.9494	523.968199556	1.0
5.9597	524.12554217	4.0
5.9699	524.280689028	2.0
5.9802	524.436685124	0.0
5.9904	524.590504257	0.0
6.0006	524.743667005	1.0
6.0109	524.89766813	0.0
6.0211	525.049520132	0.0
6.0314	525.202203337	1.0
6.0416	525.352755811	0.0
6.0518	525.502665838	1.0
6.0621	525.65339644	1.0
6.0723	525.802023558	0.0
6.0826	525.951464227	0.0
6.0928	526.098819415	1.0
6.103	526.245545801	1.0
6.1133	526.393075334	0.0
6.1235	526.538546056	2.0
6.1338	526.684813052	1.0
6.144	526.829038855	2.0
6.1542	526.972649211	0.0
6.1645	527.117045656	0.0
6.1747	527.259427014	0.0
6.185	527.402587735	0.0
6.1952	527.543750613	1.0
6.2054	527.684311113	0.0
6.2157	527.825641009	0.0
6.2259	527.964998611	0.0
6.2362	528.105119026	2.0
6.2464	528.243284025	1.0
6.2566	528.38085944	2.0
6.2669	528.51918791	0.0
6.2771	528.655585973	1.0
6.2874	528.792730648	1.0
6.2976	528.927961435	0.0
6.3078	529.062615158	1.0
6.3181	529.198005945	1.0
6.3283	529.33150732	0.0
6.3386	529.465739451	0.0
6.3488	529.59809834	1.0
6.359	529.729892419	0.0
6.3693	529.86240791	0.0
6.3795	529.993074114	2.0
6.3898	530.124455555	1.0
6.4	530.254003536	0.0
6.4102	530.382998703	0.0
6.4205	530.512699959	1.0
6.4307	530.640591203	1.0
6.441	530.769182495	0.0
6.4512	530.895979263	2.0
6.4614	531.022234957	0.0
6.4717	531.149181746	0.0
6.4819	531.274356962	0.0
6.4922	531.400217357	1.0
6.5024	531.524321341	1.0
6.5126	531.647895741	1.0
6.5229	531.772146559	1.0
6.5331	531.894663426	0.0
6.5434	532.017850923	1.0
6.5536	532.139319308	0.0
6.5638	532.260269356	0.0
6.5741	532.381881458	1.0
6.5843	532.501796432	1.0
6.5946	532.622367794	1.0
6.6048	532.741256553	0.0
6.615	532.859637983	1.0
6.6253	532.978667406	1.0
6.6355	533.096035745	0.0
6.6458	533.21404653	1.0
6.656	533.330410447	1.0
6.6662	533.446277809	0.0
6.6765	533.562779402	0.0
6.6867	533.677655187	1.0
6.697	533.793159776	3.0
6.7072	533.90705247	1.0
6.7174	534.020459155	1.0
6.7277	534.134486602	0.0
6.7379	534.246922768	0.0
6.7482	534.359974384	0.0
6.7584	534.471448337	0.0
6.7686	534.582446602	2.0
6.7789	534.694052447	0.0
6.7891	534.804100804	0.0
6.7994	534.914751541	0.0
6.8096	535.02385812	0.0
6.8198	535.132499113	0.0
6.8301	535.241734783	3.0
6.8403	535.349446041	1.0
6.8506	535.457746887	2.0
6.8608	535.564536367	1.0
6.871	535.67087015	0.0
6.8813	535.77778598	2.0
6.8915	535.883209773	1.0
6.9018	535.989210631	0.0
6.912	536.093732222	0.0
6.9222	536.197807792	0.0
6.9325	536.302453049	0.0
6.9427	536.405637955	0.0
6.953	536.509387672	1.0
6.9632	536.611689535	1.0
6.9734	536.713554851	0.0
6.9837	536.815977755	0.0
6.9939	536.916971321	0.0
7.0042	537.018517704	1.0
7.0144	537.118646981	0.0
7.0246	537.218348982	0.0
7.0349	537.318596728	1.0
7.0451	537.417445493	0.0
7.0554	537.516835333	1.0
7.0656	537.614838163	1.0
7.0758	537.712422791	1.0
7.0861	537.810541574	3.0
7.0963	537.907291086	1.0
7.1066	538.004570183	2.0
7.1168	538.100491725	0.0
7.127	538.196003946	2.0
7.1373	538.29203898	2.0
7.1475	538.386733821	0.0
7.1578	538.481946999	1.0
7.168	538.575831455	0.0
7.1782	538.669315281	2.0
7.1885	538.763310817	0.0
7.1987	538.855994622	0.0
7.209	538.949185757	0.0
7.2192	539.041076386	1.0
7.2294	539.132574895	0.0
7.2397	539.224574246	0.0
7.2499	539.315289724	1.0
7.2602	539.406501757	1.0
7.2704	539.496440904	3.0
7.2806	539.585996258	1.0
7.2909	539.676041817	0.0
7.3011	539.764830768	0.0
7.3114	539.85410573	0.0
7.3216	539.942134838	0.0
7.3318	540.029788303	1.0
7.3421	540.117921563	1.0
7.3523	540.204824902	1.0
7.3626	540.29220393	1.0
7.3728	540.378363562	0.0
7.383	540.464155529	2.0
7.3933	540.550417102	0.0
7.4035	540.635474874	0.0
7.4138	540.720998232	0.0
7.424	540.80532809	1.0
7.4342	540.889298092	2.0
7.4445	540.973727726	2.0
7.4547	541.056979124	1.0
7.465	541.140686222	1.0
7.4752	541.223225166	0.0
7.4854	541.305411895	0.0
7.4957	541.388048496	2.0
7.5059	541.469531883	1.0
7.5162	541.551461291	0.0
7.5264	541.632247354	0.0
7.5366	541.712688683	0.0
7.5469	541.793570328	1.0
7.5571	541.873323251	0.0
7.5674	541.953512723	0.0
7.5776	542.032583131	1.0
7.5878	542.111316126	1.0
7.5981	542.190480087	2.0
7.6083	542.268539296	0.0
7.6186	542.347025783	0.0
7.6288	542.424416971	0.0
7.639	542.501477912	0.0
7.6493	542.578960667	0.0
7.6595	542.655362131	0.0
7.6698	542.732181799	0.0
7.68	542.80792943	0.0
7.6902	542.883353826	0.0
7.7005	542.959191079	0.0
7.7107	543.033970003	1.0
7.721	543.109158251	0.0
7.7312	543.183297228	0.0
7.7414	543.257119835	0.0
7.7517	543.331346531	1.0
7.7619	543.404537374	0.0
7.7722	543.478128848	0.0
7.7824	543.550693334	1.0
7.7926	543.622948169	0.0
7.8029	543.695598511	0.0
7.8131	543.767235	0.0
7.8234	543.83926361	2.0
7.8336	543.910287043	0.0
7.8438	543.981007401	1.0
7.8541	544.052114866	0.0
7.8643	544.12223001	0.0
7.8746	544.192728947	0.0
7.8848	544.262244054	0.0
7.895	544.331462523	0.0
7.9053	544.401059878	0.0
7.9155	544.469685985	0.0
7.9258	544.538687735	0.0
7.936	544.606726549	0.0
7.9462	544.674475024	0.0
7.9565	544.742594339	0.0
7.9667	544.809763032	2.0
7.977	544.877299391	1.0
7.9872	544.943893263	0.0
7.9974	545.010202963	3.0
8.0077	545.076875627	0.0
8.0179	545.142617857	0.0
8.0282	545.208719945	0.0
8.0384	545.273899563	1.0
8.0486	545.338801042	1.0
8.0589	545.404057777	1.0
8.0691	545.468403839	2.0
8.0794	545.533102116	0.0
8.0896	545.596897513	0.0
8.0998	545.660420678	2.0
8.1101	545.724291555	1.0
8.1203	545.787271099	0.0
8.1306	545.850595377	0.0
