TL-DOS Lehrstuhlversuch
detector=R1407305
job_number=2015-11-02-006
irradiation_dose [mSv]=0.2

[BEGIN DATA]
time [sec] 	 temperature [K] 	 photoncount 
0.0	155.018086332	0.0
0.0102	156.566529628	0.0
0.0205	158.124210965	0.0
0.0307	159.660906434	0.0
0.041	161.206769856	2.0
0.0512	162.731806627	2.0
0.0614	164.251075481	2.0
0.0717	165.779408321	0.0
0.0819	167.28715069	1.0
0.0922	168.803888278	2.0
0.1024	170.300191612	0.0
0.1126	171.790835704	4.0
0.1229	173.290373005	2.0
0.1331	174.769707784	1.0
0.1434	176.257868301	1.0
0.1536	177.72597957	2.0
0.1638	179.188538223	2.0
0.1741	180.659822527	1.0
0.1843	182.111284947	2.0
0.1946	183.571406819	2.0
0.2048	185.011857192	0.0
0.215	186.446859568	1.0
0.2253	187.890423193	0.0
0.2355	189.314538402	0.0
0.2458	190.747149908	2.0
0.256	192.16046055	0.0
0.2662	193.568425839	0.0
0.2765	194.984791075	0.0
0.2867	196.382074325	0.0
0.297	197.787693792	0.0
0.3072	199.174376046	1.0
0.3174	200.555813659	0.0
0.3277	201.945492955	0.0
0.3379	203.316449791	0.0
0.3482	204.69558578	0.0
0.3584	206.056141354	0.0
0.3686	207.411551104	0.0
0.3789	208.775047252	0.0
0.3891	210.120173694	1.0
0.3994	211.473325184	1.0
0.4096	212.808246335	0.0
0.4198	214.138118616	0.0
0.4301	215.475924938	0.0
0.4403	216.795707659	0.0
0.4506	218.123364228	0.0
0.4608	219.433133938	0.0
0.471	220.737949904	0.0
0.4813	222.050550426	0.0
0.4915	223.345466931	0.0
0.5018	224.648108932	0.0
0.512	225.933201084	0.0
0.5222	227.213432825	0.0
0.5325	228.501302452	1.0
0.5427	229.77182125	0.0
0.553	231.049919986	0.0
0.5632	232.310799532	0.0
0.5734	233.566910244	0.0
0.5837	234.830514934	0.0
0.5939	236.077095705	0.0
0.6042	237.3311136	0.0
0.6144	238.568236734	0.0
0.6246	239.800680883	0.0
0.6349	241.040477816	0.0
0.6451	242.26357158	0.0
0.6554	243.493962344	0.0
0.6656	244.707776663	0.0
0.6758	245.917000156	0.0
0.6861	247.133437897	0.0
0.6963	248.333487176	0.0
0.7066	249.540695971	0.0
0.7168	250.731640641	0.0
0.727	251.91808098	0.0
0.7373	253.111599643	0.0
0.7475	254.289038622	0.0
0.7578	255.473502223	0.0
0.768	256.642008133	1.0
0.7782	257.806094579	1.0
0.7885	258.977125987	0.0
0.7987	260.132380669	0.0
0.809	261.294527621	0.0
0.8192	262.441017544	0.0
0.8294	263.583171271	0.0
0.8397	264.732139107	0.0
0.8499	265.86562747	0.0
0.8602	267.005878245	0.0
0.8704	268.130766987	0.0
0.8806	269.251401231	0.0
0.8909	270.3787212	0.0
0.9011	271.490853346	0.0
0.9114	272.609620493	0.0
0.9216	273.713315044	0.0
0.9318	274.812835258	0.0
0.9421	275.91891523	0.0
0.9523	277.010093535	0.0
0.9626	278.107781829	0.0
0.9728	279.190681513	0.0
0.983	280.269485509	0.0
0.9933	281.35472567	0.0
1.0035	282.425344927	0.0
1.0138	283.502351519	0.0
1.024	284.564848135	0.0
1.0342	285.62332623	0.0
1.0445	286.688119225	0.0
1.0547	287.738566792	0.0
1.065	288.795281348	0.0
1.0752	289.837759313	0.0
1.0854	290.876294471	0.0
1.0957	291.921025548	0.0
1.1059	292.951681482	0.0
1.1162	293.988486327	0.0
1.1264	295.011322815	0.0
1.1366	296.030290783	0.0
1.1469	297.055337932	1.0
1.1571	298.06657513	0.0
1.1674	299.083845386	0.0
1.1776	300.087410466	0.0
1.1878	301.087179912	1.0
1.1981	302.092914001	0.0
1.2083	303.085098333	0.0
1.2186	304.083202055	0.0
1.2288	305.06785882	0.0
1.239	306.048791467	0.0
1.2493	307.035576376	0.0
1.2595	308.009066821	0.0
1.2698	308.988365127	0.0
1.28	309.954469834	0.0
1.2902	310.916920588	0.0
1.3005	311.88511334	0.0
1.3107	312.840262112	0.0
1.321	313.801109319	0.0
1.3312	314.749011508	0.0
1.3414	315.693328589	0.0
1.3517	316.643279483	0.0
1.3619	317.58043216	0.0
1.3722	318.523175907	1.0
1.3824	319.453218535	0.0
1.3926	320.379743603	0.0
1.4029	321.311796336	2.0
1.4131	322.231291985	0.0
1.4234	323.156273361	0.0
1.4336	324.068792923	1.0
1.4438	324.977861199	0.0
1.4541	325.892352993	2.0
1.4643	326.794524292	0.0
1.4746	327.702077962	1.0
1.4848	328.597404612	0.0
1.495	329.489345002	2.0
1.5053	330.386606725	1.0
1.5155	331.271780086	1.0
1.5258	332.162234407	0.0
1.536	333.040692078	2.0
1.5462	333.915827292	0.0
1.5565	334.796183578	1.0
1.5667	335.66467926	0.0
1.577	336.538356404	1.0
1.5872	337.400262928	1.0
1.5974	338.258909594	2.0
1.6077	339.122678961	1.0
1.6179	339.974811192	0.0
1.6282	340.832027259	0.0
1.6384	341.677694479	3.0
1.6486	342.52016326	0.0
1.6589	343.367658224	4.0
1.6691	344.203735309	6.0
1.6794	345.044800446	1.0
1.6896	345.874534328	2.0
1.6998	346.701130034	1.0
1.7101	347.532657224	4.0
1.7203	348.352981661	0.0
1.7306	349.178200168	2.0
1.7408	349.992300916	2.0
1.751	350.803322613	1.0
1.7613	351.619182881	3.0
1.7715	352.424051467	1.0
1.7818	353.233721914	2.0
1.792	354.032484073	2.0
1.8022	354.828225194	3.0
1.8125	355.628713721	0.0
1.8227	356.418417664	5.0
1.833	357.212832994	1.0
1.8432	357.99654556	4.0
1.8534	358.777294009	1.0
1.8637	359.562700416	7.0
1.8739	360.337525433	2.0
1.8842	361.11697307	4.0
1.8944	361.885919596	1.0
1.9046	362.651957851	4.0
1.9149	363.422566304	6.0
1.9251	364.182792732	5.0
1.9354	364.947554684	3.0
1.9456	365.702013378	3.0
1.9558	366.453618596	5.0
1.9661	367.209707905	4.0
1.9763	367.955610797	2.0
1.9866	368.70596376	3.0
1.9968	369.446207589	6.0
2.007	370.183651706	6.0
2.0173	370.925495428	6.0
2.0275	371.657344657	7.0
2.0378	372.393560112	8.0
2.048	373.119856901	3.0
2.0582	373.843406727	9.0
2.0685	374.571273265	2.0
2.0787	375.289333618	10.0
2.089	376.011677932	9.0
2.0992	376.724290459	12.0
2.1094	377.434207779	7.0
2.1197	378.148360479	10.0
2.1299	378.852891754	10.0
2.1402	379.561626275	9.0
2.1504	380.260812367	5.0
2.1606	380.957354034	6.0
2.1709	381.65805128	7.0
2.1811	382.34930838	19.0
2.1914	383.044689532	6.0
2.2016	383.730702159	17.0
2.2118	384.414120184	12.0
2.2221	385.101615493	18.0
2.2323	385.779848519	12.0
2.2426	386.462127895	13.0
2.2528	387.13521526	16.0
2.263	387.805756908	26.0
2.2733	388.480299019	19.0
2.2835	389.145753359	19.0
2.2938	389.815177812	15.0
2.304	390.475583441	31.0
2.3142	391.133491318	30.0
2.3245	391.795324285	19.0
2.3347	392.448240704	24.0
2.345	393.105052435	25.0
2.3552	393.753015267	23.0
2.3654	394.398527406	36.0
2.3757	395.047890683	25.0
2.3859	395.688505411	24.0
2.3962	396.332942058	21.0
2.4064	396.968696529	23.0
2.4166	397.602046482	26.0
2.4269	398.239175012	33.0
2.4371	398.867719826	20.0
2.4474	399.500014549	21.0
2.4576	400.123790679	30.0
2.4678	400.745207595	37.0
2.4781	401.370331895	33.0
2.4883	401.987034206	39.0
2.4986	402.607415774	34.0
2.5088	403.219439248	38.0
2.519	403.829147959	37.0
2.5293	404.442494202	27.0
2.5395	405.047577136	26.0
2.5498	405.656270006	32.0
2.56	406.256762259	20.0
2.5702	406.85498336	36.0
2.5805	407.456773459	41.0
2.5907	408.050455939	16.0
2.601	408.647680339	25.0
2.6112	409.236858631	26.0
2.6214	409.823808562	26.0
2.6317	410.414260248	30.0
2.6419	410.996757071	24.0
2.6522	411.58272908	19.0
2.6624	412.16080658	31.0
2.6726	412.736697703	19.0
2.6829	413.316024604	20.0
2.6931	413.887546521	22.0
2.7034	414.462478148	28.0
2.7136	415.029664006	23.0
2.7238	415.594704682	15.0
2.7341	416.163116402	19.0
2.7443	416.723870192	14.0
2.7546	417.28796945	19.0
2.7648	417.844468878	16.0
2.775	418.398863542	26.0
2.7853	418.956565735	11.0
2.7955	419.506754283	20.0
2.8058	420.060225265	14.0
2.816	420.606239608	12.0
2.8262	421.150188842	19.0
2.8365	421.697383288	22.0
2.8467	422.237205655	15.0
2.857	422.780248611	19.0
2.8672	423.315975419	9.0
2.8774	423.849676028	17.0
2.8877	424.386560705	22.0
2.8979	424.916212201	19.0
2.9082	425.449023607	16.0
2.9184	425.974656709	14.0
2.9286	426.498301789	22.0
2.9389	427.025070945	16.0
2.9491	427.544743201	23.0
2.9594	428.067515831	27.0
2.9696	428.583245404	19.0
2.9798	429.097024412	25.0
2.9901	429.613868634	21.0
3.0003	430.123749671	25.0
3.0106	430.636672667	22.0
3.0208	431.142685306	26.0
3.031	431.646784129	19.0
3.0413	432.153890415	16.0
3.0515	432.65416471	17.0
3.0618	433.15742365	28.0
3.072	433.653902433	24.0
3.0822	434.148503458	19.0
3.0925	434.646055282	21.0
3.1027	435.136903837	24.0
3.113	435.630680803	34.0
3.1232	436.117805357	29.0
3.1334	436.603087534	25.0
3.1437	437.091264913	33.0
3.1539	437.57286532	22.0
3.1642	438.057338963	28.0
3.1744	438.535285534	30.0
3.1846	439.011424439	24.0
3.1949	439.490403998	31.0
3.2051	439.962930503	33.0
3.2154	440.438276109	27.0
3.2256	440.90721762	27.0
3.2358	441.374385524	32.0
3.2461	441.84434056	29.0
3.2563	442.307964125	42.0
3.2666	442.774353677	33.0
3.2768	443.234459793	31.0
3.287	443.69282572	32.0
3.2973	444.153926266	33.0
3.3075	444.608814633	37.0
3.3178	445.066416872	30.0
3.328	445.517854063	34.0
3.3382	445.967583851	29.0
3.3485	446.419996736	40.0
3.3587	446.866314486	36.0
3.369	447.315294976	21.0
3.3792	447.758226574	27.0
3.3894	448.199482939	32.0
3.3997	448.643371847	33.0
3.4099	449.08128046	48.0
3.4202	449.521801644	33.0
3.4304	449.956387905	33.0
3.4406	450.389330495	35.0
3.4509	450.824856029	37.0
3.4611	451.254513943	36.0
3.4714	451.686735205	24.0
3.4816	452.113133363	32.0
3.4918	452.53791882	22.0
3.5021	452.965238555	32.0
3.5123	453.386801223	35.0
3.5226	453.810878941	22.0
3.5328	454.229243271	29.0
3.543	454.646025284	22.0
3.5533	455.065293827	29.0
3.5635	455.478913772	25.0
3.5738	455.895001381	28.0
3.584	456.305483248	33.0
3.5942	456.714412612	24.0
3.6045	457.125781656	31.0
3.6147	457.531608528	25.0
3.625	457.939856571	30.0
3.6352	458.342604491	34.0
3.6454	458.743829158	23.0
3.6557	459.147447538	22.0
3.6659	459.545628168	30.0
3.6762	459.946184351	19.0
3.6864	460.34134404	23.0
3.6966	460.735009175	37.0
3.7069	461.131022924	28.0
3.7171	461.521701375	28.0
3.7274	461.914710622	22.0
3.7376	462.30242505	34.0
3.7478	462.688673084	19.0
3.7581	463.077225481	34.0
3.7683	463.460543104	30.0
3.7786	463.846147607	29.0
3.7888	464.226557052	32.0
3.799	464.605527731	21.0
3.8093	464.986759357	31.0
3.8195	465.362854837	22.0
3.8298	465.741194111	16.0
3.84	466.114436207	17.0
3.8502	466.486266645	19.0
3.8605	466.860315431	32.0
3.8707	467.229324843	28.0
3.881	467.600535771	32.0
3.8912	467.96674556	33.0
3.9014	468.331570287	29.0
3.9117	468.698571566	43.0
3.9219	469.060628419	29.0
3.9322	469.424845309	26.0
3.9424	469.784155286	24.0
3.9526	470.142106299	21.0
3.9629	470.502192854	38.0
3.9731	470.857428142	33.0
3.9834	471.21478277	22.0
3.9936	471.567322936	26.0
4.0038	471.918529742	24.0
4.0141	472.271831855	31.0
4.0243	472.620374104	37.0
4.0346	472.970995762	25.0
4.0448	473.316893668	19.0
4.055	473.661483337	31.0
4.0653	474.008128833	22.0
4.0755	474.350104148	30.0
4.0858	474.694119693	23.0
4.096	475.033500487	29.0
4.1062	475.371597692	39.0
4.1165	475.711711992	30.0
4.1267	476.0472441	18.0
4.137	476.384777999	18.0
4.1472	476.717764471	29.0
4.1574	477.049491538	20.0
4.1677	477.383197695	27.0
4.1779	477.712407995	27.0
4.1882	478.043582369	22.0
4.1984	478.370294995	22.0
4.2086	478.695771945	27.0
4.2189	479.023190697	31.0
4.2291	479.346198298	29.0
4.2394	479.671132968	14.0
4.2496	479.991689955	19.0
4.2598	480.311034547	30.0
4.2701	480.632284355	19.0
4.2803	480.949206124	24.0
4.2906	481.268018653	23.0
4.3008	481.58253598	28.0
4.311	481.895863755	19.0
4.3213	482.211060849	21.0
4.3315	482.522011449	25.0
4.3418	482.834817186	27.0
4.352	483.143408647	15.0
4.3622	483.450832968	15.0
4.3725	483.760091389	23.0
4.3827	484.065183324	24.0
4.393	484.372095443	21.0
4.4032	484.674872688	17.0
4.4134	484.976504783	18.0
4.4237	485.279936422	20.0
4.4339	485.579280076	23.0
4.4442	485.88040962	26.0
4.4544	486.177482195	24.0
4.4646	486.473431197	17.0
4.4749	486.771145837	17.0
4.4851	487.064849514	15.0
4.4954	487.360305433	23.0
4.5056	487.651780821	22.0
4.5158	487.942153806	19.0
4.5261	488.234259161	27.0
4.5363	488.522429126	20.0
4.5466	488.812318317	31.0
4.5568	489.098301976	15.0
4.567	489.383204001	23.0
4.5773	489.669805757	25.0
4.5875	489.95254627	20.0
4.5978	490.236973618	20.0
4.608	490.517569018	18.0
4.6182	490.797103163	17.0
4.6285	491.078305015	23.0
4.6387	491.355718373	24.0
4.649	491.634786784	22.0
4.6592	491.910095446	24.0
4.6694	492.184362848	17.0
4.6797	492.460266535	22.0
4.6899	492.732453109	18.0
4.7002	493.006263552	14.0
4.7104	493.276385083	12.0
4.7206	493.545484975	32.0
4.7309	493.816190321	14.0
4.7411	494.083248588	17.0
4.7514	494.35190013	12.0
4.7616	494.616932262	19.0
4.7718	494.880962004	17.0
4.7821	495.146566952	17.0
4.7923	495.408593536	23.0
4.8026	495.672183375	21.0
4.8128	495.932221999	18.0
4.823	496.191277119	26.0
4.8333	496.451877766	22.0
4.8435	496.708967469	23.0
4.8538	496.967590975	25.0
4.864	497.222730174	18.0
4.8742	497.476904399	22.0
4.8845	497.732595032	14.0
4.8947	497.984840871	18.0
4.905	498.238591614	18.0
4.9152	498.488923699	13.0
4.9254	498.738308991	18.0
4.9357	498.98918212	21.0
4.9459	499.236675359	18.0
4.9562	499.485645148	14.0
4.9664	499.73126069	23.0
4.9766	499.975947278	22.0
4.9869	500.22209367	21.0
4.9971	500.464923854	11.0
5.0074	500.709202768	26.0
5.0176	500.950190632	13.0
5.0278	501.190267045	24.0
5.0381	501.431775758	18.0
5.0483	501.670030743	11.0
5.0586	501.909707162	19.0
5.0688	502.14615454	31.0
5.079	502.381707639	8.0
5.0893	502.618666051	16.0
5.0995	502.85243204	14.0
5.1098	503.087592682	18.0
5.12	503.319585121	22.0
5.1302	503.550700129	20.0
5.1405	503.783193974	13.0
5.1507	504.012555545	13.0
5.161	504.243285491	18.0
5.1712	504.470906927	17.0
5.1814	504.697667465	17.0
5.1917	504.92578086	15.0
5.2019	505.150820997	20.0
5.2122	505.377203727	14.0
5.2224	505.600536515	22.0
5.2326	505.823024625	21.0
5.2429	506.046840103	23.0
5.2531	506.267640226	21.0
5.2634	506.489757646	17.0
5.2736	506.708882589	12.0
5.2838	506.927178769	12.0
5.2941	507.146777307	12.0
5.3043	507.363417303	22.0
5.3146	507.581349778	17.0
5.3248	507.796346156	16.0
5.335	508.010529386	18.0
5.3453	508.225990437	20.0
5.3555	508.438548688	15.0
5.3658	508.652375065	15.0
5.376	508.863320666	11.0
5.3862	509.073468439	13.0
5.3965	509.284869957	11.0
5.4067	509.493423368	15.0
5.417	509.703221012	9.0
5.4272	509.910192156	15.0
5.4374	510.116380505	13.0
5.4477	510.323798977	16.0
5.4579	510.528423003	13.0
5.4682	510.734267819	6.0
5.4784	510.93733939	16.0
5.4886	511.139642915	13.0
5.4989	511.343153386	10.0
5.5091	511.543922061	9.0
5.5194	511.745888526	9.0
5.5296	511.945133996	15.0
5.5398	512.143625891	13.0
5.5501	512.343301992	10.0
5.5603	512.540287956	14.0
5.5706	512.738449141	16.0
5.5808	512.9339406	10.0
5.591	513.12869268	11.0
5.6013	513.324606655	11.0
5.6115	513.517881178	12.0
5.6218	513.71230878	5.0
5.632	513.904116956	10.0
5.6422	514.095199684	3.0
5.6525	514.287422416	9.0
5.6627	514.477055426	3.0
5.673	514.66781979	10.0
5.6832	514.85601408	10.0
5.6934	515.043496592	4.0
5.7037	515.232097627	6.0
5.7139	515.418157735	4.0
5.7242	515.60532788	7.0
5.7344	515.789976375	4.0
5.7446	515.973926501	7.0
5.7549	516.158974077	4.0
5.7651	516.3415286	4.0
5.7754	516.525172245	6.0
5.7856	516.706341751	6.0
5.7958	516.886826047	3.0
5.8061	517.068387115	3.0
5.8163	517.247502102	2.0
5.8266	517.427685691	5.0
5.8368	517.605441756	1.0
5.847	517.782525522	5.0
5.8573	517.960665772	3.0
5.8675	518.136406027	2.0
5.8778	518.313194752	6.0
5.888	518.487601689	1.0
5.8982	518.661348994	3.0
5.9085	518.836132878	6.0
5.9187	519.008561986	7.0
5.929	519.182019809	1.0
5.9392	519.353140721	2.0
5.9494	519.523614427	0.0
5.9597	519.695105183	1.0
5.9699	519.86428553	4.0
5.9802	520.034475209	5.0
5.9904	520.202372007	2.0
6.0006	520.369633794	4.0
6.0109	520.537893468	2.0
6.0211	520.703886263	4.0
6.0314	520.870869374	5.0
6.0416	521.035602805	4.0
6.0518	521.199713188	3.0
6.0621	521.364802658	4.0
6.0723	521.527667959	1.0
6.0826	521.691504917	2.0
6.0928	521.853134581	0.0
6.103	522.014152938	1.0
6.1133	522.176131933	2.0
6.1235	522.335928666	1.0
6.1338	522.496678748	2.0
6.144	522.655263125	1.0
6.1542	522.813247711	4.0
6.1645	522.972174837	1.0
6.1747	523.128960816	0.0
6.185	523.286682184	2.0
6.1952	523.442278649	2.0
6.2054	523.597286626	1.0
6.2157	523.753219382	1.0
6.2259	523.907051335	2.0
6.2362	524.061801051	2.0
6.2464	524.214465901	3.0
6.2566	524.36655335	1.0
6.2669	524.519548156	1.0
6.2771	524.670481738	1.0
6.2874	524.822315793	1.0
6.2976	524.972104262	1.0
6.3078	525.12132621	1.0
6.3181	525.271438418	1.0
6.3283	525.419528239	1.0
6.3386	525.568501567	1.0
6.3488	525.715467851	1.0
6.359	525.861878286	0.0
6.3693	526.009162209	1.0
6.3795	526.154461848	0.0
6.3898	526.300628348	1.0
6.4	526.444825619	2.0
6.4102	526.588477514	2.0
6.4205	526.73298644	0.0
6.4307	526.875548468	1.0
6.441	527.018961024	0.0
6.4512	527.160441453	1.0
6.4614	527.301386783	0.0
6.4717	527.443172994	2.0
6.4819	527.583048991	0.0
6.4922	527.72375949	2.0
6.5024	527.862574267	2.0
6.5126	528.000864025	1.0
6.5229	528.139978822	0.0
6.5331	528.277219395	2.0
6.5434	528.415278748	0.0
6.5536	528.551478095	0.0
6.5638	528.687162316	0.0
6.5741	528.823656032	0.0
6.5843	528.958310835	1.0
6.5946	529.093768992	0.0
6.6048	529.227402188	0.0
6.615	529.360529963	0.0
6.6253	529.494451981	0.0
6.6355	529.626569734	0.0
6.6458	529.759475704	1.0
6.656	529.890591097	1.0
6.6662	530.021210593	1.0
6.6765	530.152609367	2.0
6.6867	530.282237871	0.0
6.697	530.41263974	0.0
6.7072	530.54128477	1.0
6.7174	530.669443245	1.0
6.7277	530.798366316	1.0
6.7379	530.92555247	0.0
6.7482	531.053497419	0.0
6.7584	531.17971863	0.0
6.7686	531.305462452	0.0
6.7789	531.431956465	0.0
6.7891	531.556746287	2.0
6.7994	531.682280607	3.0
6.8096	531.806123665	0.0
6.8198	531.929498331	0.0
6.8301	532.053609052	0.0
6.8403	532.176047691	0.0
6.8506	532.2992168	1.0
6.8608	532.420726514	0.0
6.871	532.54177666	0.0
6.8813	532.663548993	0.0
6.8915	532.783680748	1.0
6.9018	532.904529211	2.0
6.912	533.023749542	0.0
6.9222	533.142518965	0.0
6.9325	533.261996968	0.0
6.9427	533.379865303	0.0
6.953	533.498436843	0.0
6.9632	533.615410927	0.0
6.9734	533.731942598	0.0
6.9837	533.849169499	1.0
6.9939	533.96481706	0.0
7.0042	534.081154576	0.0
7.0144	534.195924735	0.0
7.0246	534.310260816	0.0
7.0349	534.425279028	1.0
7.0451	534.538747657	0.0
7.0554	534.652893241	1.0
7.0656	534.765500999	0.0
7.0758	534.877682857	0.0
7.0861	534.990533995	0.0
7.0963	535.101864745	0.0
7.1066	535.213859696	0.0
7.1168	535.324345795	1.0
7.127	535.434414019	0.0
7.1373	535.545138912	0.0
7.1475	535.654372063	1.0
7.1578	535.764256901	0.0
7.168	535.872661316	2.0
7.1782	535.980655729	0.0
7.1885	536.089294438	1.0
7.1987	536.196469512	1.0
7.209	536.304283994	0.0
7.2192	536.410645945	0.0
7.2294	536.51660562	0.0
7.2397	536.623197452	0.0
7.2499	536.728353225	0.0
7.2602	536.834136359	0.0
7.2704	536.938494329	0.0
7.2806	537.042457603	0.0
7.2909	537.147041122	0.0
7.3011	537.25021564	1.0
7.3114	537.354005699	0.0
7.3216	537.456397446	0.0
7.3318	537.558401933	1.0
7.3421	537.661014979	1.0
7.3523	537.762245571	0.0
7.3626	537.864080107	0.0
7.3728	537.964542676	1.0
7.383	538.064625281	0.0
7.3933	538.165304981	0.0
7.4035	538.264628273	0.0
7.4138	538.36454413	0.0
7.424	538.463113869	0.0
7.4342	538.561310804	1.0
7.4445	538.660093583	2.0
7.4547	538.75754551	0.0
7.465	538.855578838	1.0
7.4752	538.952291411	1.0
7.4854	539.048638203	0.0
7.4957	539.145559801	0.0
7.5059	539.241175623	0.0
7.5162	539.337361891	0.0
7.5264	539.432252288	0.0
7.5366	539.526783796	0.0
7.5469	539.621879281	0.0
7.5571	539.715693591	0.0
7.5674	539.8100676	1.0
7.5776	539.903170154	1.0
7.5878	539.99592058	0.0
7.5981	540.089224357	0.0
7.6083	540.181271099	0.0
7.6186	540.273866993	2.0
7.6288	540.365215388	0.0
7.639	540.456218291	1.0
7.6493	540.547764118	0.0
7.6595	540.638076594	0.0
7.6698	540.728927875	0.0
7.68	540.818555162	0.0
7.6902	540.907843466	2.0
7.7005	540.997664465	1.0
7.7107	541.08627535	0.0
7.721	541.17541489	0.0
7.7312	541.263353497	0.0
7.7414	541.350959507	0.0
7.7517	541.439088175	0.0
7.7619	541.52602953	1.0
7.7722	541.613489579	1.0
7.7824	541.699771322	0.0
7.7926	541.785726734	0.0
7.8029	541.872194958	1.0
7.8131	541.957498239	0.0
7.8234	542.04331044	0.0
7.8336	542.127966536	0.0
7.8438	542.21230245	1.0
7.8541	542.297141514	1.0
7.8643	542.380837583	0.0
7.8746	542.465032985	0.0
7.8848	542.548094063	0.0
7.895	542.630840992	0.0
7.9053	542.714081591	1.0
7.9155	542.79620073	0.0
7.9258	542.878809794	0.0
7.936	542.960305907	0.0
7.9462	543.041493789	0.0
7.9565	543.12316604	0.0
7.9667	543.203737961	1.0
7.977	543.284790576	0.0
7.9872	543.364751208	0.0
7.9974	543.444409418	2.0
8.0077	543.52454287	2.0
8.0179	543.603596724	0.0
8.0282	543.683122215	0.0
8.0384	543.761576298	2.0
8.0486	543.839733656	0.0
8.0589	543.918357302	1.0
