TL-DOS Lehrstuhlversuch
detector=R1407602
job_number=2015-11-04-001
irradiation_dose [mSv]=0.08

[BEGIN DATA]
time [sec] 	 temperature [K] 	 photoncount 
0.0	160.443607271	0.0
0.0102	161.930126489	0.0
0.0205	163.425549546	2.0
0.0307	164.900860276	1.0
0.041	166.385007709	3.0
0.0512	167.849194464	0.0
0.0614	169.307877652	2.0
0.0717	170.775297949	2.0
0.0819	172.222982535	0.0
0.0922	173.679338352	0.0
0.1024	175.116107266	0.0
0.1126	176.547475671	1.0
0.1229	177.987417578	0.0
0.1331	179.407993337	2.0
0.1434	180.837077953	1.0
0.1536	182.246942444	1.0
0.1638	183.651507553	0.0
0.1741	185.06448562	0.0
0.1843	186.458460183	1.0
0.1946	187.860784268	0.0
0.2048	189.244248138	1.0
0.215	190.622511861	0.0
0.2253	192.009031003	0.0
0.2355	193.376902494	2.0
0.2458	194.752967158	1.0
0.256	196.110524775	0.0
0.2662	197.462979622	0.0
0.2765	198.8235353	0.0
0.2867	200.165792516	2.0
0.297	201.516089482	2.0
0.3072	202.848225958	1.0
0.3174	204.175355217	0.0
0.3277	205.510433613	0.0
0.3379	206.827556197	0.0
0.3482	208.152567983	0.0
0.3584	209.459759346	0.0
0.3686	210.762037253	0.0
0.3789	212.072115446	0.0
0.3891	213.364574062	0.0
0.3994	214.664774148	0.0
0.4096	215.94748751	0.0
0.4198	217.225379425	0.0
0.4301	218.51092556	0.0
0.4403	219.779182056	0.0
0.4506	221.055035057	0.0
0.4608	222.313728785	0.0
0.471	223.567691351	0.0
0.4813	224.829164806	0.0
0.4915	226.073672381	0.0
0.5018	227.325634214	0.0
0.512	228.560758091	0.0
0.5222	229.791239399	0.0
0.5325	231.029090951	0.0
0.5427	232.25029432	0.0
0.553	233.478812361	0.0
0.5632	234.690807747	0.0
0.5734	235.898247501	0.0
0.5837	237.112919485	0.0
0.5939	238.311255034	0.0
0.6042	239.516768282	0.0
0.6144	240.706068275	0.0
0.6246	241.890897941	0.0
0.6349	243.082824409	0.0
0.6451	244.258720353	0.0
0.6554	245.441659589	2.0
0.6656	246.608689173	0.0
0.6758	247.77133214	0.0
0.6861	248.940939017	0.0
0.6963	250.094815552	0.0
0.7066	251.255603489	0.0
0.7168	252.400779692	0.0
0.727	253.54165142	0.0
0.7373	254.689356655	0.0
0.7475	255.821626109	0.0
0.7578	256.960677543	0.0
0.768	258.084409584	0.0
0.7782	259.203917754	0.0
0.7885	260.330131469	0.0
0.7987	261.441198448	0.0
0.809	262.55892041	0.0
0.8192	263.661609844	0.0
0.8294	264.760154503	0.0
0.8397	265.86527914	0.0
0.8499	266.955540674	0.0
0.8602	268.052332573	1.0
0.8704	269.134373437	0.0
0.8806	270.212347138	0.0
0.8909	271.296777605	0.0
0.9011	272.366623289	0.0
0.9114	273.442877053	2.0
0.9216	274.504656004	0.0
0.9318	275.562443954	0.0
0.9421	276.626567762	0.0
0.9523	277.676379896	0.0
0.9626	278.732480115	0.0
0.9728	279.774376571	0.0
0.983	280.81235676	0.0
0.9933	281.856554164	0.0
1.0035	282.886707889	1.0
1.0138	283.923031951	0.0
1.024	284.945418225	0.0
1.0342	285.963961566	0.0
1.0445	286.988605701	1.0
1.0547	287.999469134	1.0
1.065	289.01638736	0.0
1.0752	290.019628792	0.0
1.0854	291.019099253	0.0
1.0957	292.024556266	0.0
1.1059	293.01649063	0.0
1.1162	294.014366407	0.0
1.1264	294.998821497	0.0
1.1366	295.97957623	3.0
1.1469	296.966205412	0.0
1.1571	297.939565166	0.0
1.1674	298.918755076	1.0
1.1776	299.884775611	0.0
1.1878	300.847165079	1.0
1.1981	301.815318994	0.0
1.2083	302.77045196	1.0
1.2186	303.731305908	0.0
1.2288	304.679237085	0.0
1.239	305.623605191	1.0
1.2493	306.5736298	1.0
1.2595	307.510877286	0.0
1.2698	308.453738625	1.0
1.28	309.38391918	0.0
1.2902	310.310603384	0.0
1.3005	311.242838171	0.0
1.3107	312.162535093	1.0
1.321	313.087740746	0.0
1.3312	314.000503071	1.0
1.3414	314.909834516	0.0
1.3517	315.824612606	0.0
1.3619	316.727087611	0.0
1.3722	317.634968192	0.0
1.3824	318.530638454	0.0
1.3926	319.422942083	0.0
1.4029	320.320590363	0.0
1.4131	321.206165942	1.0
1.4234	322.097045874	1.0
1.4336	322.975944134	0.0
1.4438	323.851538802	0.0
1.4541	324.73237804	1.0
1.4643	325.601370646	0.0
1.4746	326.475568277	0.0
1.4848	327.338008601	0.0
1.495	328.197207194	3.0
1.5053	329.06155215	0.0
1.5155	329.914272309	1.0
1.5258	330.772100027	0.0
1.536	331.6183906	2.0
1.5462	332.461500146	1.0
1.5565	333.309659685	1.0
1.5667	334.14641211	0.0
1.577	334.988176451	0.0
1.5872	335.818619688	0.0
1.5974	336.645941465	0.0
1.6077	337.47821867	1.0
1.6179	338.299302367	2.0
1.6282	339.125304128	0.0
1.6384	339.94019678	1.0
1.6486	340.752026424	0.0
1.6589	341.568718702	0.0
1.6691	342.374427078	1.0
1.6794	343.184961424	1.0
1.6896	343.984594686	1.0
1.6998	344.781222296	0.0
1.7101	345.582621486	1.0
1.7203	346.373242453	1.0
1.7306	347.168599021	0.0
1.7408	347.953258635	1.0
1.751	348.73496888	1.0
1.7613	349.521361354	0.0
1.7715	350.297177434	2.0
1.7818	351.077640438	0.0
1.792	351.847606795	0.0
1.8022	352.614679012	1.0
1.8125	353.38634578	2.0
1.8227	354.147634204	1.0
1.833	354.913482535	0.0
1.8432	355.669030776	0.0
1.8534	356.421739072	2.0
1.8637	357.178955882	2.0
1.8739	357.92598869	3.0
1.8842	358.677496018	7.0
1.8944	359.418896131	1.0
1.9046	360.157509479	1.0
1.9149	360.900546917	0.0
1.9251	361.633591054	0.0
1.9354	362.371025923	1.0
1.9456	363.098542842	4.0
1.9558	363.823325179	5.0
1.9661	364.552448762	3.0
1.9763	365.271766175	1.0
1.9866	365.995392101	1.0
1.9968	366.709285797	2.0
2.007	367.420496117	6.0
2.0173	368.135966392	1.0
2.0275	368.841814123	0.0
2.0378	369.551889687	8.0
2.048	370.252415263	3.0
2.0582	370.950307713	1.0
2.0685	371.652380345	2.0
2.0787	372.345010623	4.0
2.089	373.041789564	1.0
2.0992	373.729197348	3.0
2.1094	374.414021311	8.0
2.1197	375.102947181	2.0
2.1299	375.782607511	1.0
2.1402	376.466338818	1.0
2.1504	377.140874448	4.0
2.1606	377.812874641	1.0
2.1709	378.488899931	3.0
2.1811	379.155833183	5.0
2.1914	379.82676118	6.0
2.2016	380.488665696	7.0
2.2118	381.148082253	5.0
2.2221	381.811448533	4.0
2.2323	382.46589303	6.0
2.2426	383.124257469	8.0
2.2528	383.773767396	5.0
2.263	384.420835953	11.0
2.2733	385.071780272	6.0
2.2835	385.713969874	10.0
2.2938	386.360006015	4.0
2.304	386.99735345	2.0
2.3142	387.632305232	10.0
2.3245	388.271060199	9.0
2.3347	388.901224387	17.0
2.345	389.535163085	14.0
2.3552	390.160575779	12.0
2.3654	390.783637679	8.0
2.3757	391.410431548	20.0
2.3859	392.028795506	13.0
2.3962	392.650863293	7.0
2.4064	393.264564731	11.0
2.4166	393.875959396	7.0
2.4269	394.491016145	9.0
2.4371	395.09780084	9.0
2.4474	395.708220007	13.0
2.4576	396.31042949	12.0
2.4678	396.910375396	9.0
2.4781	397.513914812	12.0
2.4883	398.109337072	17.0
2.4986	398.708325746	12.0
2.5088	399.299258469	15.0
2.519	399.887970001	12.0
2.5293	400.480207753	13.0
2.5395	401.064480347	20.0
2.5498	401.652252573	18.0
2.56	402.2321197	13.0
2.5702	402.809807229	11.0
2.5805	403.390954947	10.0
2.5907	403.964286661	16.0
2.601	404.541052473	17.0
2.6112	405.110061214	14.0
2.6214	405.676931173	14.0
2.6317	406.247196525	16.0
2.6419	406.809792233	16.0
2.6522	407.375757734	13.0
2.6624	407.93411142	8.0
2.6726	408.490366373	16.0
2.6829	409.049953139	14.0
2.6931	409.60201388	11.0
2.7034	410.157381312	18.0
2.7136	410.705279466	11.0
2.7238	411.251118186	17.0
2.7341	411.80022633	15.0
2.7443	412.341949378	16.0
2.7546	412.886917197	16.0
2.7648	413.424555605	12.0
2.775	413.960173143	10.0
2.7853	414.498998883	8.0
2.7955	415.030577818	14.0
2.8058	415.565340764	8.0
2.816	416.092911546	8.0
2.8262	416.618499301	6.0
2.8365	417.147235182	5.0
2.8467	417.668859958	6.0
2.857	418.193609123	9.0
2.8672	418.711300802	12.0
2.8774	419.227046588	10.0
2.8877	419.745881549	10.0
2.8979	420.257738566	9.0
2.9082	420.772661465	8.0
2.9184	421.280659033	10.0
2.9286	421.786747147	4.0
2.9389	422.295866589	10.0
2.9491	422.798138753	3.0
2.9594	423.303419389	11.0
2.9696	423.801904376	10.0
2.9798	424.298515664	10.0
2.9901	424.798101516	11.0
3.0003	425.290968311	7.0
3.0106	425.786787241	11.0
3.0208	426.275937775	8.0
3.031	426.763249697	9.0
3.0413	427.253480482	12.0
3.0515	427.737118028	12.0
3.0618	428.22365243	9.0
3.072	428.703643305	4.0
3.0822	429.181829997	8.0
3.0925	429.662880895	5.0
3.1027	430.137462016	5.0
3.113	430.614885748	8.0
3.1232	431.085888485	9.0
3.1334	431.555120823	14.0
3.1437	432.027163733	12.0
3.1539	432.492858017	18.0
3.1642	432.961341681	13.0
3.1744	433.423524588	17.0
3.1846	433.883970249	14.0
3.1949	434.347173851	9.0
3.2051	434.804147709	15.0
3.2154	435.263858715	12.0
3.2256	435.71738695	14.0
3.2358	436.169210468	18.0
3.2461	436.623740285	11.0
3.2563	437.072157014	14.0
3.2666	437.523259635	17.0
3.2768	437.968295261	12.0
3.287	438.411658093	11.0
3.2973	438.857676546	11.0
3.3075	439.297696382	15.0
3.3178	439.740351816	12.0
3.328	440.177053863	21.0
3.3382	440.612114441	11.0
3.3485	441.049780911	11.0
3.3587	441.481561092	10.0
3.369	441.915927518	10.0
3.3792	442.344452038	15.0
3.3894	442.771365826	16.0
3.3997	443.200836709	15.0
3.4099	443.624531528	12.0
3.4202	444.050764163	11.0
3.4304	444.471264285	14.0
3.4406	444.890183837	13.0
3.4509	445.311612602	14.0
3.4611	445.727373463	18.0
3.4714	446.145624616	20.0
3.4816	446.558250603	13.0
3.4918	446.969325616	16.0
3.5021	447.382862856	15.0
3.5123	447.790838327	9.0
3.5226	448.201257458	7.0
3.5328	448.606156757	17.0
3.543	449.009534126	17.0
3.5533	449.415327614	15.0
3.5635	449.815663482	15.0
3.5738	450.21839725	13.0
3.584	450.615714549	14.0
3.5942	451.011538417	9.0
3.6045	451.409733161	13.0
3.6147	451.802572481	16.0
3.625	452.1977648	13.0
3.6352	452.587642077	11.0
3.6454	452.976053888	12.0
3.6557	453.366792178	22.0
3.6659	453.752275329	13.0
3.6762	454.140067418	14.0
3.6864	454.522643991	8.0
3.6966	454.903782541	12.0
3.7069	455.287204005	11.0
3.7171	455.665468735	11.0
3.7274	456.045999167	7.0
3.7376	456.421411748	22.0
3.7478	456.795413232	5.0
3.7581	457.171654882	13.0
3.7683	457.542836362	6.0
3.7786	457.916241117	11.0
3.7888	458.284623855	15.0
3.799	458.651621921	17.0
3.8093	459.020818203	10.0
3.8195	459.385049071	14.0
3.8298	459.751461581	17.0
3.84	460.112946115	11.0
3.8502	460.473071905	14.0
3.8605	460.83535475	4.0
3.8707	461.19276516	9.0
3.881	461.552316359	15.0
3.8912	461.907031862	14.0
3.9014	462.260414065	12.0
3.9117	462.61591293	12.0
3.9219	462.9666306	8.0
3.9322	463.319448971	11.0
3.9424	463.667522198	14.0
3.9526	464.014287092	11.0
3.9629	464.363129011	11.0
3.9731	464.707279267	12.0
3.9834	465.053490887	13.0
3.9936	465.395046219	12.0
4.0038	465.735317716	5.0
4.0141	466.077627346	9.0
4.0243	466.415333166	15.0
4.0346	466.755061751	10.0
4.0448	467.090221238	11.0
4.055	467.424120933	14.0
4.0653	467.760020594	13.0
4.0755	468.091402655	9.0
4.0858	468.424769603	15.0
4.096	468.753653014	15.0
4.1062	469.081300221	11.0
4.1165	469.410909945	7.0
4.1267	469.736086664	12.0
4.137	470.063211101	7.0
4.1472	470.385935958	15.0
4.1574	470.70744776	9.0
4.1677	471.03088533	13.0
4.1779	471.349972904	9.0
4.1882	471.670971726	18.0
4.1984	471.987653351	15.0
4.2086	472.303144638	12.0
4.2189	472.620525631	11.0
4.2291	472.933638085	11.0
4.2394	473.248625997	7.0
4.2496	473.559377555	11.0
4.2598	473.868961064	9.0
4.2701	474.180398893	9.0
4.2803	474.487648115	5.0
4.2906	474.796737675	16.0
4.3008	475.10167021	14.0
4.311	475.405456569	14.0
4.3213	475.711062524	12.0
4.3315	476.012558306	22.0
4.3418	476.315859965	11.0
4.352	476.615082442	11.0
4.3622	476.913180205	9.0
4.3725	477.213063492	8.0
4.3827	477.508913572	15.0
4.393	477.806535711	12.0
4.4032	478.100155055	18.0
4.4134	478.392670745	7.0
4.4237	478.686938524	12.0
4.4339	478.97724862	9.0
4.4442	479.269297594	9.0
4.4544	479.557418726	11.0
4.4646	479.844456872	8.0
4.4749	480.133214297	7.0
4.4851	480.418088149	10.0
4.4954	480.704668317	13.0
4.5056	480.987394196	15.0
4.5158	481.269057367	14.0
4.5261	481.552407624	16.0
4.5363	481.83194703	10.0
4.5466	482.1131608	8.0
4.5568	482.390592454	7.0
4.567	482.666981301	14.0
4.5773	482.945025641	5.0
4.5875	483.219330492	7.0
4.5978	483.495278353	11.0
4.608	483.76751492	11.0
4.6182	484.038728208	9.0
4.6285	484.311565989	5.0
4.6387	484.580734304	8.0
4.649	484.851514864	4.0
4.6592	485.118653626	10.0
4.6694	485.384788271	9.0
4.6797	485.652516988	10.0
4.6899	485.916644954	7.0
4.7002	486.182354973	8.0
4.7104	486.444491389	16.0
4.7206	486.705642491	9.0
4.7309	486.968357816	10.0
4.7411	487.227539815	9.0
4.7514	487.488274243	4.0
4.7616	487.745501986	6.0
4.7718	488.001762866	9.0
4.7821	488.259558677	7.0
4.7923	488.513887326	7.0
4.8026	488.769739333	10.0
4.8128	489.022150322	12.0
4.823	489.273612551	7.0
4.8333	489.526580969	11.0
4.8435	489.776147151	9.0
4.8538	490.027208164	6.0
4.864	490.274892594	7.0
4.8742	490.521646031	12.0
4.8845	490.769877453	5.0
4.8947	491.014770347	13.0
4.905	491.261130081	10.0
4.9152	491.504176461	10.0
4.9254	491.746309281	7.0
4.9357	491.989892409	13.0
4.9459	492.230199526	13.0
4.9562	492.471946016	13.0
4.9664	492.710441195	6.0
4.9766	492.948039922	12.0
4.9869	493.187061799	12.0
4.9971	493.42286901	4.0
5.0074	493.660088641	5.0
5.0176	493.894117845	9.0
5.0278	494.127267382	15.0
5.0381	494.361813421	7.0
5.0483	494.59320499	8.0
5.0586	494.825982531	8.0
5.0688	495.055629386	8.0
5.079	495.284413049	11.0
5.0893	495.514567062	9.0
5.0995	495.741625675	13.0
5.1098	495.970044306	6.0
5.12	496.195390876	10.0
5.1302	496.419890417	16.0
5.1405	496.645734648	7.0
5.1507	496.868541442	9.0
5.161	497.092682787	13.0
5.1712	497.313809598	3.0
5.1814	497.53410524	5.0
5.1917	497.755720392	10.0
5.2019	497.974354985	6.0
5.2122	498.19429914	9.0
5.2224	498.411285208	8.0
5.2326	498.627455673	10.0
5.2429	498.844920938	16.0
5.2531	499.059461458	6.0
5.2634	499.275287016	10.0
5.2736	499.488209881	6.0
5.2838	499.700332414	10.0
5.2941	499.913725502	10.0
5.3043	500.124248613	11.0
5.3146	500.336032698	9.0
5.3248	500.544968445	7.0
5.335	500.753118847	10.0
5.3453	500.962516012	12.0
5.3555	501.169096942	9.0
5.3658	501.376915234	15.0
5.376	501.581938524	9.0
5.3862	501.786191176	12.0
5.3965	501.991667244	11.0
5.4067	502.194379813	6.0
5.417	502.398306573	7.0
5.4272	502.599490671	5.0
5.4374	502.79991856	8.0
5.4477	503.001546956	15.0
5.4579	503.200463601	9.0
5.4682	503.400571702	8.0
5.4784	503.597988497	4.0
5.4886	503.794663245	4.0
5.4989	503.99251602	6.0
5.5091	504.187707823	7.0
5.5194	504.38406877	10.0
5.5296	504.577788809	12.0
5.5398	504.770780695	8.0
5.5501	504.96492855	5.0
5.5603	505.15646526	13.0
5.5706	505.349149222	3.0
5.5808	505.539241729	9.0
5.591	505.728619718	6.0
5.6013	505.919132028	6.0
5.6115	506.10708209	9.0
5.6218	506.296157921	8.0
5.632	506.482690823	8.0
5.6422	506.668522587	8.0
5.6525	506.855467432	8.0
5.6627	507.039898008	8.0
5.673	507.225433272	3.0
5.6832	507.408473225	5.0
5.6934	507.590825169	3.0
5.7037	507.774269352	4.0
5.7139	507.955246346	7.0
5.7242	508.137307343	8.0
5.7344	508.316919755	8.0
5.7446	508.495857042	8.0
5.7549	508.675866114	4.0
5.7651	508.853454197	8.0
5.7754	509.032105985	7.0
5.7856	509.208355038	8.0
5.7958	509.383941609	4.0
5.8061	509.560579895	4.0
5.8163	509.734842528	9.0
5.8266	509.910148945	3.0
5.8368	510.083097622	6.0
5.847	510.255396221	6.0
5.8573	510.428726841	6.0
5.8675	510.599726294	10.0
5.8778	510.771749986	3.0
5.888	510.941460087	5.0
5.8982	511.110532284	4.0
5.9085	511.280617177	6.0
5.9187	511.448414554	7.0
5.929	511.617216991	3.0
5.9392	511.783749162	3.0
5.9494	511.949655373	7.0
5.9597	512.116555316	1.0
5.9699	512.28121058	3.0
5.9802	512.446852083	6.0
5.9904	512.610265831	3.0
6.0006	512.773065341	0.0
6.0109	512.936839976	6.0
6.0211	513.098411963	7.0
6.0314	513.260951722	2.0
6.0416	513.421305443	3.0
6.0518	513.581056428	1.0
6.0621	513.741764277	8.0
6.0723	513.900310725	2.0
6.0826	514.059806822	6.0
6.0928	514.217157816	3.0
6.103	514.37391736	3.0
6.1133	514.531615851	6.0
6.1235	514.687193415	1.0
6.1338	514.843702845	4.0
6.144	514.99810734	2.0
6.1542	515.151931461	2.0
6.1645	515.306676946	4.0
6.1747	515.45934122	3.0
6.185	515.61291991	3.0
6.1952	515.764433081	2.0
6.2054	515.915376746	1.0
6.2157	516.067224523	3.0
6.2259	516.217030059	6.0
6.2362	516.36773289	3.0
6.2464	516.516408879	2.0
6.2566	516.664526027	2.0
6.2669	516.813530356	0.0
6.2771	516.960530687	2.0
6.2874	517.10841151	1.0
6.2976	517.254303446	2.0
6.3078	517.399647005	1.0
6.3181	517.545861132	1.0
6.3283	517.690108787	0.0
6.3386	517.835220446	4.0
6.3488	517.978380461	3.0
6.359	518.121002369	2.0
6.3693	518.264478542	4.0
6.3795	518.406025067	0.0
6.3898	518.548419417	2.0
6.4	518.688898668	2.0
6.4102	518.828849888	1.0
6.4205	518.969639378	0.0
6.4307	519.108535353	1.0
6.441	519.248263277	0.0
6.4512	519.386111964	0.0
6.4614	519.523442507	3.0
6.4717	519.661595623	2.0
6.4819	519.797890681	0.0
6.4922	519.93500211	0.0
6.5024	520.070269492	3.0
6.5126	520.205028432	2.0
6.5229	520.340594541	2.0
6.5331	520.474337387	0.0
6.5434	520.608881316	2.0
6.5536	520.741615729	0.0
6.5638	520.873851221	0.0
6.5741	521.006878767	0.0
6.5843	521.138117192	0.0
6.5946	521.270141699	1.0
6.6048	521.400390575	1.0
6.615	521.530149872	1.0
6.6253	521.660686392	0.0
6.6355	521.789467293	1.0
6.6458	521.919019556	2.0
6.656	522.046829437	2.0
6.6662	522.174158909	1.0
6.6765	522.302251048	1.0
6.6867	522.428620444	0.0
6.697	522.555746757	0.0
6.7072	522.681163316	0.0
6.7174	522.806108461	1.0
6.7277	522.931801992	0.0
6.7379	523.05580504	1.0
6.7482	523.180550831	0.0
6.7584	523.303618884	0.0
6.7686	523.42622435	0.0
6.7789	523.54956419	0.0
6.7891	523.6712452	2.0
6.7994	523.793655046	0.0
6.8096	523.91441857	0.0
6.8198	524.03472817	2.0
6.8301	524.155758392	1.0
6.8403	524.275160847	0.0
6.8506	524.395278489	2.0
6.8608	524.513780639	2.0
6.871	524.631837364	1.0
6.8813	524.750601217	1.0
6.8915	524.867767784	0.0
6.9018	524.985636146	0.0
6.912	525.101919267	3.0
6.9222	525.217765304	2.0
6.9325	525.334305227	0.0
6.9427	525.449277774	0.0
6.953	525.564938976	1.0
6.9632	525.67904462	0.0
6.9734	525.792721365	0.0
6.9837	525.907079003	2.0
6.9939	526.019898616	0.0
7.0042	526.133393987	0.0
7.0144	526.245362929	0.0
7.0246	526.356911004	1.0
7.0349	526.469127221	1.0
7.0451	526.579834214	5.0
7.0554	526.691204311	0.0
7.0656	526.801076563	0.0
7.0758	526.910535828	0.0
7.0861	527.020650725	1.0
7.0963	527.129284657	0.0
7.1066	527.238569278	0.0
7.1168	527.346384101	0.0
7.127	527.453793671	2.0
7.1373	527.561846595	0.0
7.1475	527.668446287	1.0
7.1578	527.775684483	1.0
7.168	527.881480404	0.0
7.1782	527.986878661	0.0
7.1885	528.092908224	0.0
7.1987	528.197511768	0.0
7.209	528.302741859	1.0
7.2192	528.406556684	0.0
7.2294	528.50998129	1.0
7.2397	528.614025382	0.0
7.2499	528.716670157	2.0
7.2602	528.819929747	0.0
7.2704	528.921800572	0.0
7.2806	529.023288486	1.0
7.2909	529.125384285	0.0
7.3011	529.226106971	0.0
7.3114	529.327432958	1.0
7.3216	529.427396187	0.0
7.3318	529.526983674	0.0
7.3421	529.627167663	0.0
7.3523	529.726004252	0.0
7.3626	529.825432845	0.0
7.3728	529.923524197	1.0
7.383	530.021246845	1.0
7.3933	530.119554825	1.0
7.4035	530.216540635	0.0
7.4138	530.314107363	1.0
7.424	530.410361892	3.0
7.4342	530.50625462	0.0
7.4445	530.602721719	0.0
7.4547	530.697891407	0.0
7.465	530.793631136	0.0
7.4752	530.888083236	1.0
7.4854	530.982180311	1.0
7.4957	531.076841002	1.0
7.5059	531.170228577	1.0
7.5162	531.264175517	2.0
7.5264	531.356858941	1.0
7.5366	531.449193988	0.0
7.5469	531.542082096	0.0
7.5571	531.633720928	1.0
7.5674	531.725908652	0.0
7.5776	531.816856519	0.0
7.5878	531.907462532	1.0
7.5981	531.998611251	1.0
7.6083	532.088534087	3.0
7.6186	532.178995536	0.0
7.6288	532.268240345	0.0
7.639	532.357149703	0.0
7.6493	532.446591603	0.0
7.6595	532.534830576	1.0
7.6698	532.623598076	0.0
7.68	532.711171719	0.0
7.6902	532.798416192	1.0
7.7005	532.886183234	1.0
7.7107	532.972769876	0.0
7.721	533.059875147	0.0
7.7312	533.145808917	0.0
7.7414	533.231419681	1.0
7.7517	533.317543229	0.0
7.7619	533.40250848	2.0
7.7722	533.487982649	0.0
7.7824	533.572307254	1.0
7.7926	533.656314901	3.0
7.8029	533.74082573	1.0
7.8131	533.824199952	0.0
7.8234	533.908073562	1.0
7.8336	533.990819135	2.0
7.8438	534.073253684	0.0
7.8541	534.156181994	1.0
7.8643	534.23799498	2.0
7.8746	534.320298002	0.0
7.8848	534.401494111	0.0
7.895	534.48238502	0.0
7.9053	534.563760444	0.0
7.9155	534.644041429	0.0
7.9258	534.724803274	0.0
7.936	534.804478933	1.0
7.9462	534.883855108	0.0
7.9565	534.963706725	2.0
7.9667	535.042484396	1.0
7.977	535.121733924	0.0
7.9872	535.199917605	0.0
7.9974	535.27780741	0.0
8.0077	535.356163754	0.0
8.0179	535.433466263	2.0
8.0282	535.511231792	0.0
8.0384	535.587951433	0.0
8.0486	535.664382702	1.0
8.0589	535.741271772	2.0
8.0691	535.817126742	0.0
8.0794	535.893436062	1.0
8.0896	535.968719078	1.0
8.0998	536.043719122	0.0
8.1101	536.119168395	0.0
