TL-DOS Lehrstuhlversuch
detector=R1406802
job_number=2015-10-20-014
irradiation_dose [mSv]=2.0

[BEGIN DATA]
time [sec] 	 temperature [K] 	 photoncount 
0.0	18.8135938798	0.0
0.0102	22.0406133745	1.0
0.0205	25.2788745097	0.0
0.0307	28.4656246412	1.0
0.041	31.663476131	2.0
0.0512	34.8104594132	1.0
0.0614	37.9378415334	2.0
0.0717	41.0761181975	2.0
0.0819	44.1644743105	1.0
0.0922	47.2635890164	1.0
0.1024	50.3134061202	2.0
0.1126	53.3442272671	1.0
0.1229	56.3856065783	2.0
0.1331	59.3786066839	1.0
0.1434	62.3820332005	0.0
0.1536	65.3376842265	4.0
0.1638	68.2749258143	2.0
0.1741	71.2223995727	2.0
0.1843	74.1229878808	1.0
0.1946	77.0336806742	0.0
0.2048	79.898073092	2.0
0.215	82.7446244808	1.0
0.2253	85.601092112	1.0
0.2355	88.4121219269	0.0
0.2458	91.2329442413	1.0
0.256	94.0088957493	0.0
0.2662	96.7675570876	0.0
0.2765	99.5358284945	0.0
0.2867	102.260065022	0.0
0.297	104.993791696	0.0
0.3072	107.684032994	0.0
0.3174	110.357517972	0.0
0.3277	113.0403163	0.0
0.3379	115.680439367	0.0
0.3482	118.329759564	0.0
0.3584	120.936937037	1.0
0.3686	123.52787556	1.0
0.3789	126.127839872	0.0
0.3891	128.686446565	1.0
0.3994	131.253966416	0.0
0.4096	133.780644742	0.0
0.4198	136.29158551	0.0
0.4301	138.811273388	0.0
0.4403	141.290880604	0.0
0.4506	143.779125776	0.0
0.4608	146.227790444	0.0
0.471	148.661203467	0.0
0.4813	151.103093524	0.0
0.4915	153.506140448	0.0
0.5018	155.917558623	0.0
0.512	158.290618381	0.0
0.5222	160.648897404	1.0
0.5325	163.015391724	0.0
0.5427	165.34424223	0.0
0.553	167.681205517	1.0
0.5632	169.980994741	0.0
0.5734	172.266459598	0.0
0.5837	174.559886098	0.0
0.5939	176.816831073	0.0
0.6042	179.081638339	0.0
0.6144	181.310419327	0.0
0.6246	183.525318228	0.0
0.6349	185.747932947	0.0
0.6451	187.935192546	0.0
0.6554	190.130071678	0.0
0.6656	192.290036879	0.0
0.6758	194.436548616	0.0
0.6861	196.590537938	0.0
0.6963	198.710263763	0.0
0.7066	200.837373861	0.0
0.7168	202.93064803	0.0
0.727	205.010884124	0.0
0.7373	207.098366924	0.0
0.7475	209.152644147	0.0
0.7578	211.214077646	1.0
0.768	213.242719933	0.0
0.7782	215.258726708	0.0
0.7885	217.281756441	0.0
0.7987	219.272605851	0.0
0.809	221.27039058	1.0
0.8192	223.236396558	0.0
0.8294	225.190157157	0.0
0.8397	227.150723874	0.0
0.8499	229.080103866	0.0
0.8602	231.016205044	0.0
0.8704	232.92150867	0.0
0.8806	234.814945005	1.0
0.8909	236.714977312	0.0
0.9011	238.584785815	0.0
0.9114	240.46110798	0.0
0.9216	242.307583498	0.0
0.9318	244.142558139	0.0
0.9421	245.983925096	2.0
0.9523	247.796001438	0.0
0.9626	249.614390326	0.0
0.9728	251.403854111	0.0
0.983	253.182172121	0.0
0.9933	254.966685076	0.0
1.0035	256.722811794	0.0
1.0138	258.485056151	0.0
1.024	260.219268497	1.0
1.0342	261.942679203	0.0
1.0445	263.672093581	0.0
1.0547	265.373998173	1.0
1.065	267.081831517	0.0
1.0752	268.762498365	2.0
1.0854	270.432697085	0.0
1.0957	272.108714107	0.0
1.1059	273.758070734	0.0
1.1162	275.413173058	0.0
1.1264	277.041947678	2.0
1.1366	278.660577383	1.0
1.1469	280.284845745	2.0
1.1571	281.883276878	3.0
1.1674	283.487276303	1.0
1.1776	285.065760918	1.0
1.1878	286.634413852	0.0
1.1981	288.208531344	2.0
1.2083	289.757609357	1.0
1.2186	291.312083735	0.0
1.2288	292.841831098	1.0
1.239	294.362050343	1.0
1.2493	295.887565422	2.0
1.2595	297.38881414	2.0
1.2698	298.895292606	2.0
1.28	300.377807526	1.0
1.2902	301.851088519	2.0
1.3005	303.329501832	2.0
1.3107	304.784398032	3.0
1.321	306.244362506	2.0
1.3312	307.681103332	2.0
1.3414	309.108895338	2.0
1.3517	310.541661197	3.0
1.3619	311.951636058	4.0
1.3722	313.366522705	9.0
1.3824	314.758902757	4.0
1.3926	316.142610291	8.0
1.4029	317.531138108	4.0
1.4131	318.897578619	9.0
1.4234	320.26877926	10.0
1.4336	321.61816822	8.0
1.4438	322.959152435	6.0
1.4541	324.304808101	9.0
1.4643	325.629058428	10.0
1.4746	326.957921913	10.0
1.4848	328.265647172	10.0
1.495	329.565227192	11.0
1.5053	330.869334426	19.0
1.5155	332.152697233	15.0
1.5258	333.440530761	22.0
1.536	334.707878728	10.0
1.5462	335.967332947	16.0
1.5565	337.231174598	19.0
1.5667	338.474912327	20.0
1.577	339.722982739	13.0
1.5872	340.951200101	27.0
1.5974	342.171767442	21.0
1.6077	343.39658675	28.0
1.6179	344.601922863	32.0
1.6282	345.811457884	30.0
1.6384	347.001752836	30.0
1.6486	348.184633971	35.0
1.6589	349.371635788	43.0
1.6691	350.539755973	28.0
1.6794	351.71194542	42.0
1.6896	352.865488855	42.0
1.6998	354.01184738	42.0
1.7101	355.162199358	40.0
1.7203	356.294252694	53.0
1.7306	357.430249648	48.0
1.7408	358.548176305	59.0
1.751	359.659139892	63.0
1.7613	360.773973631	66.0
1.7715	361.871073715	65.0
1.7818	362.971995656	96.0
1.792	364.055405236	101.0
1.8022	365.13206674	90.0
1.8125	366.212478899	101.0
1.8227	367.275704948	104.0
1.833	368.34263485	137.0
1.8432	369.392593103	131.0
1.8534	370.436011633	146.0
1.8637	371.483065013	151.0
1.8739	372.513462921	149.0
1.8842	373.547450321	164.0
1.8944	374.564990089	180.0
1.9046	375.576192053	200.0
1.9149	376.59091664	191.0
1.9251	377.589500007	192.0
1.9354	378.591562038	220.0
1.9456	379.577684273	208.0
1.9558	380.55766439	216.0
1.9661	381.541058365	269.0
1.9763	382.508809497	289.0
1.9866	383.479931885	282.0
1.9968	384.435606634	275.0
2.007	385.38532891	335.0
2.0173	386.338359637	327.0
2.0275	387.276230508	364.0
2.0378	388.217368546	370.0
2.048	389.143535905	384.0
2.0582	390.063934579	371.0
2.0685	390.987539552	401.0
2.0787	391.896452746	496.0
2.089	392.808532228	442.0
2.0992	393.706103267	426.0
2.1094	394.598083734	484.0
2.1197	395.493171503	504.0
2.1299	396.374021115	465.0
2.1402	397.257939254	521.0
2.1504	398.127796912	492.0
2.1606	398.992236612	505.0
2.1709	399.859687673	568.0
2.1811	400.713340194	524.0
2.1914	401.569966498	596.0
2.2016	402.412966452	483.0
2.2118	403.250715733	527.0
2.2221	404.091383397	562.0
2.2323	404.918678564	560.0
2.2426	405.748855695	565.0
2.2528	406.565827203	525.0
2.263	407.377710159	522.0
2.2733	408.192421388	537.0
2.2835	408.99417301	496.0
2.2938	409.798717613	490.0
2.304	410.590464328	486.0
2.3142	411.377279605	493.0
2.3245	412.166835831	429.0
2.3347	412.94383259	431.0
2.345	413.723536093	392.0
2.3552	414.490836857	364.0
2.3654	415.253358445	366.0
2.3757	416.018536351	365.0
2.3859	416.771542577	361.0
2.3962	417.527171975	307.0
2.4064	418.270781579	306.0
2.4166	419.009759569	290.0
2.4269	419.751311862	290.0
2.4371	420.481068286	290.0
2.4474	421.213366888	300.0
2.4576	421.934016821	276.0
2.4678	422.650178145	273.0
2.4781	423.368834287	242.0
2.4883	424.07605877	262.0
2.4986	424.785746939	277.0
2.5088	425.484146102	250.0
2.519	426.178195246	255.0
2.5293	426.874662179	291.0
2.5395	427.560050416	256.0
2.5498	428.247826271	237.0
2.56	428.924661678	299.0
2.5702	429.597281378	275.0
2.5805	430.272244215	260.0
2.5907	430.936470422	302.0
2.601	431.603010526	305.0
2.6112	432.25894798	312.0
2.6214	432.910799891	306.0
2.6317	433.564922592	363.0
2.6419	434.208640167	356.0
2.6522	434.854600196	350.0
2.6624	435.490284941	352.0
2.6726	436.122010288	345.0
2.6829	436.755936313	366.0
2.6931	437.37977848	397.0
2.7034	438.005793862	344.0
2.7136	438.621851221	378.0
2.7238	439.234071432	416.0
2.7341	439.848424373	408.0
2.7443	440.453004804	411.0
2.7546	441.059691351	428.0
2.7648	441.656727338	419.0
2.775	442.250044653	449.0
2.7853	442.845428847	459.0
2.7955	443.431342268	444.0
2.8058	444.019296776	490.0
2.816	444.597898694	443.0
2.8262	445.172896758	463.0
2.8365	445.749897885	487.0
2.8467	446.317720657	468.0
2.857	446.887521496	498.0
2.8672	447.448258516	506.0
2.8774	448.005502954	472.0
2.8877	448.564688608	506.0
2.8979	449.114979299	456.0
2.9082	449.667186981	530.0
2.9184	450.210610699	501.0
2.9286	450.750649671	508.0
2.9389	451.292569923	469.0
2.9491	451.825869852	493.0
2.9594	452.361027583	517.0
2.9696	452.887672563	488.0
2.9798	453.411037306	457.0
2.9901	453.936225241	425.0
3.0003	454.453059014	503.0
3.0106	454.971693229	476.0
3.0208	455.482077532	468.0
3.031	455.989282877	477.0
3.0413	456.498255123	433.0
3.0515	456.999131149	456.0
3.0618	457.501752026	379.0
3.072	457.996377716	434.0
3.0822	458.487922602	419.0
3.0925	458.981179833	373.0
3.1027	459.466590823	446.0
3.113	459.953692791	422.0
3.1232	460.43304643	413.0
3.1334	460.909414388	419.0
3.1437	461.38744182	409.0
3.1539	461.857865273	393.0
3.1642	462.329927492	416.0
3.1744	462.79448062	382.0
3.1846	463.256140253	404.0
3.1949	463.719408122	379.0
3.2051	464.175306792	385.0
3.2154	464.63279363	412.0
3.2256	465.083003227	404.0
3.2358	465.530408668	393.0
3.2461	465.97937269	382.0
3.2563	466.421195044	402.0
3.2666	466.864556529	363.0
3.2768	467.300865466	400.0
3.287	467.734456828	395.0
3.2973	468.169558648	422.0
3.3075	468.597739305	389.0
3.3178	469.027411573	383.0
3.328	469.450249045	357.0
3.3382	469.870452851	387.0
3.3485	470.292120478	391.0
3.3587	470.70708064	361.0
3.369	471.123486357	373.0
3.3792	471.53326831	390.0
3.3894	471.940497913	409.0
3.3997	472.349146141	392.0
3.4099	472.751294003	378.0
3.4202	473.154842787	374.0
3.4304	473.551972323	389.0
3.4406	473.946628315	401.0
3.4509	474.34265913	387.0
3.4611	474.732390285	423.0
3.4714	475.123479107	373.0
3.4816	475.508346881	343.0
3.4918	475.890817484	379.0
3.5021	476.274620461	376.0
3.5123	476.652318287	374.0
3.5226	477.03133186	410.0
3.5328	477.404316466	363.0
3.543	477.774977916	337.0
3.5533	478.146930602	338.0
3.5635	478.512966639	339.0
3.5738	478.880277798	377.0
3.584	479.24174614	395.0
3.5942	479.600963057	342.0
3.6045	479.961431341	343.0
3.6147	480.316165658	325.0
3.625	480.672135727	367.0
3.6352	481.022443382	343.0
3.6454	481.370569126	311.0
3.6557	481.7199076	357.0
3.6659	482.063689149	346.0
3.6762	482.408668295	348.0
3.6864	482.748159859	329.0
3.6966	483.085536881	365.0
3.7069	483.424089189	364.0
3.7171	483.757256148	323.0
3.7274	484.091583726	345.0
3.7376	484.420593157	325.0
3.7478	484.747553334	331.0
3.7581	485.07565251	322.0
3.7683	485.398532613	321.0
3.7786	485.722537501	316.0
3.7888	486.041388445	312.0
3.799	486.358253408	298.0
3.8093	486.676222202	321.0
3.8195	486.989133067	315.0
3.8298	487.303133988	304.0
3.84	487.612140098	301.0
3.8502	487.919221547	310.0
3.8605	488.227372743	290.0
3.8707	488.530622181	298.0
3.881	488.834928017	291.0
3.8912	489.134393262	326.0
3.9014	489.431993271	271.0
3.9117	489.730629999	288.0
3.9219	490.024516314	310.0
3.9322	490.319426411	309.0
3.9424	490.609645375	319.0
3.9526	490.898056693	285.0
3.9629	491.187472721	309.0
3.9731	491.472285009	315.0
3.9834	491.758089469	294.0
3.9936	492.039347639	306.0
4.0038	492.318853977	289.0
4.0141	492.599334002	300.0
4.0243	492.875352434	275.0
4.0346	493.152332402	330.0
4.0448	493.424906452	307.0
4.055	493.695782759	322.0
4.0653	493.96760269	330.0
4.0755	494.235098783	304.0
4.0858	494.503526725	297.0
4.096	494.767684785	303.0
4.1062	495.030197521	319.0
4.1165	495.293624747	277.0
4.1267	495.552861637	270.0
4.137	495.813001605	311.0
4.1472	496.069003527	310.0
4.1574	496.323410927	305.0
4.1677	496.57870458	308.0
4.1779	496.829937278	303.0
4.1882	497.08204517	321.0
4.1984	497.330142784	294.0
4.2086	497.576695107	267.0
4.2189	497.824106319	318.0
4.2291	498.067581963	289.0
4.2394	498.311905778	305.0
4.2496	498.552343136	253.0
4.2598	498.791282915	300.0
4.2701	499.031055066	298.0
4.2803	499.267013161	278.0
4.2906	499.50379324	295.0
4.3008	499.73680686	296.0
4.311	499.968369141	259.0
4.3213	500.200738092	309.0
4.3315	500.429410751	280.0
4.3418	500.658880014	254.0
4.352	500.884699111	282.0
4.3622	501.109111681	285.0
4.3725	501.334306014	277.0
4.3827	501.555918182	302.0
4.393	501.778302358	323.0
4.4032	501.997149069	249.0
4.4134	502.214632682	253.0
4.4237	502.432873921	252.0
4.4339	502.647643597	264.0
4.4442	502.863161444	281.0
4.4544	503.07525105	276.0
4.4646	503.286019645	266.0
4.4749	503.497522472	240.0
4.4851	503.705660925	269.0
4.4954	503.914524448	284.0
4.5056	504.120065581	265.0
4.5158	504.324326489	216.0
4.5261	504.52929896	252.0
4.5363	504.731010936	229.0
4.5466	504.933425594	237.0
4.5568	505.132620444	239.0
4.567	505.330574597	244.0
4.5773	505.529218344	230.0
4.5875	505.724702265	225.0
4.5978	505.920867174	214.0
4.608	506.113911688	198.0
4.6182	506.305753814	220.0
4.6285	506.498264241	208.0
4.6387	506.687712405	186.0
4.649	506.877820531	183.0
4.6592	507.064904608	221.0
4.6694	507.250823421	185.0
4.6797	507.4373899	206.0
4.6899	507.620988668	147.0
4.7002	507.80522702	152.0
4.7104	507.986534693	178.0
4.7206	508.166713082	147.0
4.7309	508.347519139	161.0
4.7411	508.525449116	138.0
4.7514	508.703998929	142.0
4.7616	508.879708551	139.0
4.7718	509.054323756	144.0
4.7821	509.22954725	136.0
4.7923	509.401983465	142.0
4.8026	509.575020379	121.0
4.8128	509.745304795	121.0
4.823	509.914528585	126.0
4.8333	510.084341883	104.0
4.8435	510.251453962	124.0
4.8538	510.419148192	108.0
4.864	510.584174911	108.0
4.8742	510.748173751	98.0
4.8845	510.912743898	95.0
4.8947	511.074696228	83.0
4.905	511.237212735	90.0
4.9152	511.397144093	96.0
4.9254	511.556079309	90.0
4.9357	511.715568192	84.0
4.9459	511.872520086	79.0
4.9562	512.030018738	63.0
4.9664	512.185012059	93.0
4.9766	512.339039996	88.0
4.9869	512.493604504	61.0
4.9971	512.645710355	52.0
5.0074	512.798346082	66.0
5.0176	512.948553833	61.0
5.0278	513.097826007	48.0
5.0381	513.247618185	55.0
5.0483	513.39502762	54.0
5.0586	513.54295057	49.0
5.0688	513.68852051	53.0
5.079	513.83318376	39.0
5.0893	513.978350959	41.0
5.0995	514.121208983	47.0
5.1098	514.264564668	34.0
5.12	514.405639994	44.0
5.1302	514.545836625	26.0
5.1405	514.686521645	40.0
5.1507	514.824968789	39.0
5.161	514.963898227	22.0
5.1712	515.100617715	35.0
5.1814	515.236485638	26.0
5.1917	515.372826871	25.0
5.2019	515.506999324	14.0
5.2122	515.64163918	18.0
5.2224	515.774137321	27.0
5.2326	515.905810189	22.0
5.2429	516.037941753	22.0
5.2531	516.167971501	14.0
5.2634	516.29845422	15.0
5.2736	516.426861352	16.0
5.2838	516.554468692	12.0
5.2941	516.682520565	19.0
5.3043	516.808535517	14.0
5.3146	516.934989455	20.0
5.3248	517.059431891	6.0
5.335	517.183099231	8.0
5.3453	517.307197377	15.0
5.3555	517.429321495	17.0
5.3658	517.551871044	18.0
5.376	517.672471199	11.0
5.3862	517.792320188	19.0
5.3965	517.912586683	9.0
5.4067	518.0309401	7.0
5.417	518.149705813	15.0
5.4272	518.26658232	14.0
5.4374	518.382730855	12.0
5.4477	518.499284004	10.0
5.4579	518.613983144	12.0
5.4682	518.729081849	13.0
5.4784	518.84234968	9.0
5.4886	518.954912016	9.0
5.4989	519.067866473	14.0
5.5091	519.179024165	10.0
5.5194	519.290569086	5.0
5.5296	519.400339662	9.0
5.5398	519.509426525	9.0
5.5501	519.618893404	7.0
5.5603	519.726618994	4.0
5.5706	519.834719856	9.0
5.5808	519.941101158	6.0
5.591	520.046819859	3.0
5.6013	520.152906841	7.0
5.6115	520.257306298	11.0
5.6218	520.36206944	4.0
5.632	520.465166116	3.0
5.6422	520.567620649	5.0
5.6525	520.670432092	5.0
5.6627	520.771608114	2.0
5.673	520.873136592	5.0
5.6832	520.973050058	5.0
5.6934	521.072341207	1.0
5.7037	521.171978246	2.0
5.7139	521.270030359	3.0
5.7242	521.368424047	5.0
5.7344	521.465252587	3.0
5.7446	521.561478025	0.0
5.7549	521.658038673	0.0
5.7651	521.753063332	5.0
5.7754	521.848419019	2.0
5.7856	521.942257883	4.0
5.7958	522.035512267	5.0
5.8061	522.129091511	4.0
5.8163	522.221182191	6.0
5.8266	522.313593678	4.0
5.8368	522.404535175	4.0
5.847	522.494910239	6.0
5.8573	522.585600133	4.0
5.8675	522.674847423	4.0
5.8778	522.764405615	4.0
5.888	522.852539205	2.0
5.8982	522.940123851	2.0
5.9085	523.028013606	3.0
5.9187	523.114505299	1.0
5.929	523.201298294	2.0
5.9392	523.286710674	2.0
5.9494	523.371591058	5.0
5.9597	523.456767131	3.0
5.9699	523.540588309	2.0
5.9802	523.624701486	5.0
5.9904	523.707476675	4.0
6.0006	523.789736294	2.0
6.0109	523.872282473	3.0
6.0211	523.95351559	3.0
6.0314	524.035031691	1.0
6.0416	524.115251115	3.0
6.0518	524.194970889	1.0
6.0621	524.274968374	2.0
6.0723	524.353693339	2.0
6.0826	524.43269255	5.0
6.0928	524.510435122	2.0
6.103	524.58769347	3.0
6.1133	524.665220954	0.0
6.1235	524.741515209	1.0
6.1338	524.818075243	1.0
6.144	524.893417437	2.0
6.1542	524.968290358	3.0
6.1645	525.043424106	3.0
6.1747	525.117362701	4.0
6.185	525.19155887	1.0
6.1952	525.2645748	1.0
6.2054	525.337135946	5.0
6.2157	525.409949866	2.0
6.2259	525.481605536	1.0
6.2362	525.553510825	0.0
6.2464	525.624272317	2.0
6.2566	525.694593067	2.0
6.2669	525.765158786	3.0
6.2771	525.834602017	3.0
6.2874	525.90428716	3.0
6.2976	525.972863822	4.0
6.3078	526.04101335	2.0
6.3181	526.109400284	3.0
6.3283	526.176699388	3.0
6.3386	526.244232934	3.0
6.3488	526.310692225	1.0
6.359	526.37673757	3.0
6.3693	526.44301299	1.0
6.3795	526.508234168	4.0
6.3898	526.57368255	3.0
6.4	526.638089846	0.0
6.4102	526.702095976	5.0
6.4205	526.766325079	2.0
6.4307	526.829532489	3.0
6.441	526.892960089	5.0
6.4512	526.955378746	4.0
6.4614	527.017408625	3.0
6.4717	527.079654591	0.0
6.4819	527.140910411	2.0
6.4922	527.202379622	0.0
6.5024	527.262871042	2.0
6.5126	527.322985688	2.0
6.5229	527.383309749	1.0
6.5331	527.442674236	3.0
6.5434	527.502245525	2.0
6.5536	527.560869213	3.0
6.5638	527.619127761	3.0
6.5741	527.677589258	1.0
6.5843	527.735120808	3.0
6.5946	527.792852775	1.0
6.6048	527.8496664	3.0
6.615	527.906126159	1.0
6.6253	527.9627826	2.0
6.6355	528.018537808	3.0
6.6458	528.074487244	1.0
6.656	528.129546693	1.0
6.6662	528.184263201	1.0
6.6765	528.239170319	0.0
6.6867	528.29320403	1.0
6.697	528.347425973	1.0
6.7072	528.400785408	2.0
6.7174	528.453812491	5.0
6.7277	528.507024298	5.0
6.7379	528.559389666	0.0
6.7482	528.611937453	2.0
6.7584	528.663649364	0.0
6.7686	528.715039183	2.0
6.7789	528.766608024	3.0
6.7891	528.81735656	0.0
6.7994	528.868281884	1.0
6.8096	528.918397138	1.0
6.8198	528.968200247	1.0
6.8301	529.01817685	1.0
6.8403	529.067358475	0.0
6.8506	529.116711429	1.0
6.8608	529.165279326	2.0
6.871	529.213544716	4.0
6.8813	529.261978242	2.0
6.8915	529.309641337	1.0
6.9018	529.357470471	0.0
6.912	529.404538787	4.0
6.9222	529.451313935	2.0
6.9325	529.498252029	0.0
6.9427	529.544443479	2.0
6.953	529.590795842	2.0
6.9632	529.636410877	3.0
6.9734	529.681741797	1.0
6.9837	529.727230632	4.0
6.9939	529.771995876	1.0
7.0042	529.816917064	2.0
7.0144	529.861123691	1.0
7.0246	529.905054975	1.0
7.0349	529.949139297	1.0
7.0451	529.992522371	1.0
7.0554	530.036056574	0.0
7.0656	530.078898278	0.0
7.0758	530.12147314	1.0
7.0861	530.164196316	2.0
7.0963	530.206239895	5.0
7.1066	530.248429937	2.0
7.1168	530.289948862	2.0
7.127	530.331209184	1.0
7.1373	530.37261324	2.0
7.1475	530.413358682	7.0
7.1578	530.454246065	3.0
7.168	530.494483053	0.0
7.1782	530.534469422	1.0
7.1885	530.574595088	1.0
7.1987	530.614082475	0.0
7.209	530.65370742	2.0
7.2192	530.692702051	1.0
7.2294	530.731453802	4.0
7.2397	530.770340549	2.0
7.2499	530.808608725	2.0
7.2602	530.847010211	2.0
7.2704	530.884800845	1.0
7.2806	530.922356098	0.0
7.2909	530.960042178	1.0
7.3011	530.997128787	3.0
7.3114	531.03434459	1.0
7.3216	531.070968401	1.0
7.3318	531.107364099	1.0
7.3421	531.143886585	0.0
7.3523	531.179828108	2.0
7.3626	531.215894837	0.0
7.3728	531.251387852	3.0
7.383	531.286659797	0.0
7.3933	531.322054616	3.0
7.4035	531.356886409	1.0
7.4138	531.391839543	1.0
7.424	531.426236677	4.0
7.4342	531.460419566	1.0
7.4445	531.494721535	1.0
7.4547	531.528477863	3.0
7.465	531.562351784	2.0
7.4752	531.595686873	1.0
7.4854	531.628814333	1.0
7.4957	531.662057195	1.0
7.5059	531.694771263	3.0
7.5162	531.727599294	2.0
7.5264	531.75990513	0.0
7.5366	531.792009747	1.0
7.5469	531.824226203	3.0
7.5571	531.855930193	2.0
7.5674	531.887744626	1.0
7.5776	531.919052987	0.0
7.5878	531.950166343	1.0
7.5981	531.981388085	2.0
7.6083	532.012113183	1.0
7.6186	532.042945314	1.0
7.6288	532.073287	2.0
7.639	532.1034397	1.0
7.6493	532.13369744	1.0
7.6595	532.163473871	0.0
7.6698	532.19335403	0.0
7.68	532.222758886	1.0
7.6902	532.251980593	2.0
7.7005	532.281304096	1.0
7.7107	532.31016115	3.0
7.721	532.33911873	1.0
7.7312	532.367615683	3.0
7.7414	532.39593514	0.0
7.7517	532.424353252	1.0
7.7619	532.452319316	0.0
7.7722	532.480382803	1.0
7.7824	532.507999884	4.0
7.7926	532.535444951	5.0
7.8029	532.562985625	0.0
7.8131	532.59008821	3.0
7.8234	532.61728521	0.0
7.8336	532.644049587	1.0
7.8438	532.67064726	1.0
7.8541	532.69733759	1.0
7.8643	532.723603356	0.0
7.8746	532.749960621	3.0
7.8848	532.775898622	3.0
7.895	532.801675066	0.0
7.9053	532.827541306	2.0
7.9155	532.852996091	1.0
