TL-DOS Lehrstuhlversuch
detector=R1407205
job_number=2015-11-02-004
irradiation_dose [mSv]=0.2

[BEGIN DATA]
time [sec] 	 temperature [K] 	 photoncount 
0.0	208.161891941	0.0
0.0102	209.266265861	0.0
0.0205	210.378264838	0.0
0.0307	211.47630575	1.0
0.041	212.581927994	3.0
0.0512	213.673672215	4.0
0.0614	214.762296914	5.0
0.0717	215.858437931	0.0
0.0819	216.940819936	1.0
0.0922	218.030675157	1.0
0.1024	219.106850266	0.0
0.1126	220.17995034	4.0
0.1229	221.260459544	1.0
0.1331	222.327405949	2.0
0.1434	223.401718997	0.0
0.1536	224.462547022	3.0
0.1638	225.520343864	3.0
0.1741	226.585444176	1.0
0.1843	227.637175105	2.0
0.1946	228.696167623	0.0
0.2048	229.741867425	0.0
0.215	230.784579271	0.0
0.2253	231.834490434	2.0
0.2355	232.871222872	1.0
0.2458	233.915113342	2.0
0.256	234.945900661	0.0
0.2662	235.973742635	2.0
0.2765	237.008681257	0.0
0.2867	238.030629094	0.0
0.297	239.059632884	0.0
0.3072	240.075720383	0.0
0.3174	241.08890454	0.0
0.3277	242.109084142	0.0
0.3379	243.116458217	1.0
0.3482	244.130787622	0.0
0.3584	245.132384933	0.0
0.3686	246.131120305	0.0
0.3789	247.136751362	0.0
0.3891	248.129759508	0.0
0.3994	249.129623796	0.0
0.4096	250.116937559	0.0
0.4198	251.101430197	0.0
0.4301	252.092720182	0.0
0.4403	253.071567269	0.0
0.4506	254.057172724	1.0
0.4608	255.030406634	0.0
0.471	256.00085965	1.0
0.4813	256.978013078	0.0
0.4915	257.942901052	0.0
0.5018	258.914451016	0.0
0.512	259.873805862	1.0
0.5222	260.830419472	0.0
0.5325	261.793637941	0.0
0.5427	262.744765872	1.0
0.553	263.702460786	0.0
0.5632	264.648134495	0.0
0.5734	265.591106059	0.0
0.5837	266.540588293	0.0
0.5939	267.478152408	0.0
0.6042	268.422189856	1.0
0.6144	269.354377531	0.0
0.6246	270.283901597	0.0
0.6349	271.219843483	0.0
0.6451	272.144037214	0.0
0.6554	273.074611962	0.0
0.6656	273.993505924	0.0
0.6758	274.909774262	2.0
0.6861	275.832368898	0.0
0.6963	276.743382915	0.0
0.7066	277.660686953	1.0
0.7168	278.566476781	0.0
0.727	279.469678428	0.0
0.7373	280.379116155	0.0
0.7475	281.277138412	0.0
0.7578	282.181360989	0.0
0.768	283.074233558	0.0
0.7782	283.964554855	0.0
0.7885	284.861023301	0.0
0.7987	285.74623907	0.0
0.809	286.637566738	0.0
0.8192	287.517706258	0.0
0.8294	288.395330889	0.0
0.8397	289.279015006	0.0
0.8499	290.151606918	0.0
0.8602	291.030223568	0.0
0.8704	291.897811622	0.0
0.8806	292.762920651	0.0
0.8909	293.634002753	0.0
0.9011	294.494150834	0.0
0.9114	295.360237736	0.0
0.9216	296.215453316	0.0
0.9318	297.068225226	0.0
0.9421	297.926885028	1.0
0.9523	298.774766736	0.0
0.9626	299.628502572	0.0
0.9728	300.471522122	0.0
0.983	301.312132848	0.0
0.9933	302.158547502	0.0
1.0035	302.994337765	0.0
1.0138	303.835898672	0.0
1.024	304.666896114	0.0
1.0342	305.495519086	0.0
1.0445	306.329863215	0.0
1.0547	307.153734467	0.0
1.065	307.983294069	0.0
1.0752	308.802440849	0.0
1.0854	309.61924702	0.0
1.0957	310.441692761	0.0
1.1059	311.253814975	1.0
1.1162	312.071544419	0.0
1.1264	312.879009537	0.0
1.1366	313.684167424	0.0
1.1469	314.494884456	0.0
1.1571	315.295425184	0.0
1.1674	316.101493177	1.0
1.1776	316.897443222	1.0
1.1878	317.691118938	0.0
1.1981	318.490274523	0.0
1.2083	319.279398924	1.0
1.2186	320.073971769	0.0
1.2288	320.858570953	0.0
1.239	321.640928244	0.0
1.2493	322.428687256	1.0
1.2595	323.206558136	0.0
1.2698	323.989799761	0.0
1.28	324.763209959	0.0
1.2902	325.534410233	1.0
1.3005	326.310935196	1.0
1.3107	327.07771304	0.0
1.321	327.849785037	0.0
1.3312	328.612165811	1.0
1.3414	329.372368176	0.0
1.3517	330.137819296	0.0
1.3619	330.893662299	0.0
1.3722	331.654723956	0.0
1.3824	332.406232593	0.0
1.3926	333.155593889	0.0
1.4029	333.910129088	1.0
1.4131	334.655193188	1.0
1.4234	335.405401521	2.0
1.4336	336.146193067	1.0
1.4438	336.884867895	0.0
1.4541	337.628642842	0.0
1.4643	338.363081755	0.0
1.4746	339.102591541	0.0
1.4848	339.83281883	2.0
1.495	340.560959587	0.0
1.5053	341.294127731	0.0
1.5155	342.018092981	0.0
1.5258	342.747056789	0.0
1.536	343.466870476	1.0
1.5462	344.184627386	0.0
1.5565	344.907339989	0.0
1.5667	345.620980938	0.0
1.577	346.339549161	0.0
1.5872	347.049097752	0.0
1.5974	347.756618897	0.0
1.6077	348.469025062	2.0
1.6179	349.172488943	1.0
1.6282	349.880809831	4.0
1.6384	350.580239714	1.0
1.6486	351.277671063	1.0
1.6589	351.979917769	0.0
1.6691	352.673349714	2.0
1.6794	353.371569402	2.0
1.6896	354.061024877	2.0
1.6998	354.748510319	3.0
1.7101	355.440742447	1.0
1.7203	356.124285519	1.0
1.7306	356.812548058	1.0
1.7408	357.492171367	1.0
1.751	358.169852739	0.0
1.7613	358.852213105	1.0
1.7715	359.526008327	3.0
1.7818	360.204455713	5.0
1.792	360.874387072	4.0
1.8022	361.542404186	2.0
1.8125	362.215033568	2.0
1.8227	362.879219953	6.0
1.833	363.547992158	3.0
1.8432	364.208369781	3.0
1.8534	364.866860457	2.0
1.8637	365.529897628	2.0
1.8739	366.184612204	2.0
1.8842	366.843847203	5.0
1.8944	367.494807333	4.0
1.9046	368.143907427	3.0
1.9149	368.797489177	2.0
1.9251	369.442867021	2.0
1.9354	370.092700822	5.0
1.9456	370.73437776	3.0
1.9558	371.374221187	10.0
1.9661	372.01848236	6.0
1.9763	372.654656619	9.0
1.9866	373.29522329	4.0
1.9968	373.927749423	1.0
2.007	374.558468191	8.0
2.0173	375.193541704	7.0
2.0275	375.820643629	4.0
2.0378	376.452075327	7.0
2.048	377.07558115	11.0
2.0582	377.697305384	8.0
2.0685	378.323322261	6.0
2.0787	378.94148123	12.0
2.089	379.563908227	10.0
2.0992	380.178522378	13.0
2.1094	380.791380346	9.0
2.1197	381.408469741	11.0
2.1299	382.017813289	8.0
2.1402	382.631363998	6.0
2.1504	383.237213279	8.0
2.1606	383.841331421	10.0
2.1709	384.449620647	17.0
2.1811	385.050274488	13.0
2.1914	385.655075492	10.0
2.2016	386.252284897	10.0
2.2118	386.84778785	23.0
2.2221	387.447402404	17.0
2.2323	388.039490459	13.0
2.2426	388.635666536	17.0
2.2528	389.224359275	19.0
2.263	389.811369899	17.0
2.2733	390.402433488	18.0
2.2835	390.986077912	18.0
2.2938	391.57375206	30.0
2.304	392.154049589	22.0
2.3142	392.732688989	24.0
2.3245	393.315323557	20.0
2.3347	393.890644763	20.0
2.345	394.469938227	20.0
2.3552	395.041960266	35.0
2.3654	395.612347824	27.0
2.3757	396.186673576	29.0
2.3859	396.753790259	31.0
2.3962	397.324822552	27.0
2.4064	397.888687118	26.0
2.4166	398.450940511	28.0
2.4269	399.017075935	27.0
2.4371	399.576105099	37.0
2.4474	400.138994033	32.0
2.4576	400.694817456	28.0
2.4678	401.249052684	41.0
2.4781	401.807114582	36.0
2.4883	402.35817156	32.0
2.4986	402.913033265	23.0
2.5088	403.460930219	32.0
2.519	404.007261626	30.0
2.5293	404.557365133	28.0
2.5395	405.100563615	35.0
2.5498	405.647512565	27.0
2.56	406.187596087	44.0
2.5702	406.726136389	34.0
2.5805	407.268394997	27.0
2.5907	407.803847051	32.0
2.601	408.342996089	28.0
2.6112	408.875377605	25.0
2.6214	409.406237907	27.0
2.6317	409.940763491	33.0
2.6419	410.468579587	31.0
2.6522	411.000039945	19.0
2.6624	411.524829292	29.0
2.6726	412.048119118	23.0
2.6829	412.575021956	28.0
2.6931	413.095310989	26.0
2.7034	413.619192314	20.0
2.7136	414.136497761	15.0
2.7238	414.652325073	31.0
2.7341	415.171713871	20.0
2.7443	415.684583182	25.0
2.7546	416.200993557	19.0
2.7648	416.710921831	18.0
2.775	417.219393048	23.0
2.7853	417.731374963	19.0
2.7955	418.236930364	24.0
2.8058	418.745976329	21.0
2.816	419.248632634	22.0
2.8262	419.749852661	24.0
2.8365	420.25453332	24.0
2.8467	420.752879112	20.0
2.857	421.254665691	16.0
2.8672	421.750153731	14.0
2.8774	422.244225975	21.0
2.8877	422.7417095	19.0
2.8979	423.232948498	19.0
2.9082	423.727579215	24.0
2.9184	424.216001214	18.0
2.9286	424.703027608	21.0
2.9389	425.193416635	17.0
2.9491	425.677650188	12.0
2.9594	426.16522709	15.0
2.9696	426.646683816	21.0
2.9798	427.12676484	22.0
2.9901	427.610160543	16.0
3.0003	428.087488552	28.0
3.0106	428.568112233	31.0
3.0208	429.042703016	17.0
3.031	429.515937715	27.0
3.0413	429.992439824	28.0
3.0515	430.462960769	23.0
3.0618	430.936730387	21.0
3.072	431.404553141	26.0
3.0822	431.871039149	32.0
3.0925	432.340745972	25.0
3.1027	432.804556927	26.0
3.113	433.271570226	28.0
3.1232	433.732721467	31.0
3.1334	434.192555027	25.0
3.1437	434.655563469	49.0
3.1539	435.112760123	28.0
3.1642	435.573113453	33.0
3.1744	436.027688324	30.0
3.1846	436.480964303	19.0
3.1949	436.937369889	26.0
3.2051	437.388046567	25.0
3.2154	437.841834905	24.0
3.2256	438.289927189	34.0
3.2358	438.736739104	33.0
3.2461	439.186635996	42.0
3.2563	439.630885678	37.0
3.2666	440.078202646	28.0
3.2768	440.519904789	43.0
3.287	440.960344823	30.0
3.2973	441.403825839	34.0
3.3075	441.841740179	33.0
3.3178	442.282678063	37.0
3.328	442.718081194	31.0
3.3382	443.152240215	32.0
3.3485	443.58939685	38.0
3.3587	444.021066196	35.0
3.369	444.455715966	43.0
3.3792	444.884909914	40.0
3.3894	445.312877493	24.0
3.3997	445.743799939	42.0
3.4099	446.169313348	27.0
3.4202	446.597764679	43.0
3.4304	447.020837991	32.0
3.4406	447.442702423	27.0
3.4509	447.867479584	30.0
3.4611	448.286924845	38.0
3.4714	448.70926613	39.0
3.4816	449.126306091	24.0
3.4918	449.542154413	34.0
3.5021	449.960873925	34.0
3.5123	450.374337574	34.0
3.5226	450.790655948	31.0
3.5328	451.201748598	31.0
3.543	451.611666604	28.0
3.5533	452.024414853	26.0
3.5635	452.431982193	29.0
3.5738	452.842363547	27.0
3.584	453.2475937	31.0
3.5942	453.651665959	35.0
3.6045	454.058528102	33.0
3.6147	454.460283218	28.0
3.625	454.864812218	30.0
3.6352	455.264263478	30.0
3.6454	455.662573356	34.0
3.6557	456.063633332	21.0
3.6659	456.459659111	25.0
3.6762	456.858419217	33.0
3.6864	457.252173995	42.0
3.6966	457.644803668	30.0
3.7069	458.04014422	27.0
3.7171	458.430522367	31.0
3.7274	458.823595847	29.0
3.7376	459.21173538	28.0
3.7478	459.598765852	19.0
3.7581	459.988468544	32.0
3.7683	460.373279598	24.0
3.7786	460.760747549	32.0
3.7888	461.143351913	27.0
3.799	461.524863033	33.0
3.8093	461.909008265	30.0
3.8195	462.288331618	24.0
3.8298	462.670273978	24.0
3.84	463.04742211	40.0
3.8502	463.423492588	29.0
3.8605	463.802159613	15.0
3.8707	464.176073524	43.0
3.881	464.552569092	35.0
3.8912	464.924338802	25.0
3.9014	465.295046226	25.0
3.9117	465.668313169	35.0
3.9219	466.036894779	30.0
3.9322	466.408021231	34.0
3.9424	466.774489219	28.0
3.9526	467.13991007	29.0
3.9629	467.50785394	32.0
3.9731	467.871179293	21.0
3.9834	468.237013197	17.0
3.9936	468.598255069	32.0
4.0038	468.958464738	17.0
4.0141	469.321161445	24.0
4.0243	469.6793055	23.0
4.0346	470.039922331	28.0
4.0448	470.396012616	20.0
4.055	470.751085419	26.0
4.0653	471.108609792	27.0
4.0755	471.461646437	33.0
4.0858	471.817120595	34.0
4.096	472.168132759	27.0
4.1062	472.518141951	22.0
4.1165	472.870567751	33.0
4.1267	473.218569823	22.0
4.137	473.568974645	26.0
4.1472	473.914981107	25.0
4.1574	474.259998898	33.0
4.1677	474.607398836	24.0
4.1779	474.95043813	23.0
4.1882	475.295845911	23.0
4.1984	475.636918054	23.0
4.2086	475.977015626	32.0
4.2189	476.319461374	26.0
4.2291	476.657608664	25.0
4.2394	476.998090664	18.0
4.2496	477.334298857	32.0
4.2598	477.669546376	23.0
4.2701	478.007108584	26.0
4.2803	478.340433634	32.0
4.2906	478.676060099	29.0
4.3008	479.007473704	23.0
4.311	479.337940337	26.0
4.3213	479.670688648	27.0
4.3315	479.999260227	31.0
4.3418	480.3301004	28.0
4.352	480.656787793	27.0
4.3622	480.982541717	26.0
4.3725	481.310544781	29.0
4.3827	481.634430677	28.0
4.393	481.960552815	25.0
4.4032	482.282581394	33.0
4.4134	482.603689817	21.0
4.4237	482.927015306	33.0
4.4339	483.24628234	24.0
4.4442	483.567753726	25.0
4.4544	483.88518993	24.0
4.4646	484.201719099	20.0
4.4749	484.520433718	24.0
4.4851	484.835147759	15.0
4.4954	485.152034716	19.0
4.5056	485.464944035	26.0
4.5158	485.776959256	19.0
4.5261	486.091128759	21.0
4.5363	486.401354735	18.0
4.5466	486.713722641	24.0
4.5568	487.022169633	17.0
4.567	487.329735277	18.0
4.5773	487.639424481	17.0
4.5875	487.945226397	21.0
4.5978	488.253139696	23.0
4.608	488.557187997	21.0
4.6182	488.860367518	16.0
4.6285	489.165640317	24.0
4.6387	489.467081262	21.0
4.649	489.77060348	21.0
4.6592	490.070315819	14.0
4.6694	490.369171767	23.0
4.6797	490.670091141	23.0
4.6899	490.967233306	31.0
4.7002	491.266427065	22.0
4.7104	491.561865275	21.0
4.7206	491.856459307	21.0
4.7309	492.15308734	24.0
4.7411	492.445992029	13.0
4.7514	492.740919055	30.0
4.7616	493.032144089	15.0
4.7718	493.322536984	19.0
4.7821	493.614934873	27.0
4.7923	493.903662517	18.0
4.8026	494.194383656	33.0
4.8128	494.481455598	21.0
4.823	494.767707267	24.0
4.8333	495.055935337	27.0
4.8435	495.340545502	21.0
4.8538	495.627120735	27.0
4.864	495.91009881	21.0
4.8742	496.19226831	22.0
4.8845	496.476386026	13.0
4.8947	496.756937432	17.0
4.905	497.039425882	22.0
4.9152	497.318368472	22.0
4.9254	497.596514018	16.0
4.9357	497.876579997	22.0
4.9459	498.153130524	22.0
4.9562	498.431590471	16.0
4.9664	498.706555126	24.0
4.9766	498.980734103	16.0
4.9869	499.256806126	17.0
4.9971	499.52941283	22.0
5.0074	499.803901724	17.0
5.0176	500.074945171	20.0
5.0278	500.345214145	25.0
5.0381	500.617349169	22.0
5.0483	500.886068292	24.0
5.0586	501.156642763	21.0
5.0688	501.423820922	24.0
5.079	501.690235653	16.0
5.0893	501.958489822	21.0
5.0995	502.223376804	26.0
5.1098	502.490092676	14.0
5.12	502.753460669	19.0
5.1302	503.016076121	14.0
5.1405	503.280504779	16.0
5.1507	503.541614269	20.0
5.161	503.804526567	20.0
5.1712	504.06413873	23.0
5.1814	504.323009084	24.0
5.1917	504.583666786	19.0
5.2019	504.841052654	14.0
5.2122	505.100215621	12.0
5.2224	505.356125515	14.0
5.2326	505.611304178	14.0
5.2429	505.868244702	21.0
5.2531	506.121960049	14.0
5.2634	506.377427153	20.0
5.2736	506.629687575	20.0
5.2838	506.881227195	14.0
5.2941	507.134503549	7.0
5.3043	507.38460072	8.0
5.3146	507.636424667	15.0
5.3248	507.885087661	17.0
5.335	508.133040133	15.0
5.3453	508.382704571	18.0
5.3555	508.629235165	25.0
5.3658	508.877467908	16.0
5.376	509.122584777	13.0
5.3862	509.367001256	13.0
5.3965	509.613105288	18.0
5.4067	509.856120165	17.0
5.417	510.100812919	13.0
5.4272	510.342434233	8.0
5.4374	510.583365145	14.0
5.4477	510.825959544	11.0
5.4579	511.065508843	15.0
5.4682	511.30671209	9.0
5.4784	511.544887698	8.0
5.4886	511.78238275	9.0
5.4989	512.021517567	6.0
5.5091	512.257650708	5.0
5.5194	512.495414211	15.0
5.5296	512.730193253	9.0
5.5398	512.964301442	12.0
5.5501	513.200026013	10.0
5.5603	513.432791714	13.0
5.5706	513.667164527	12.0
5.5808	513.898595439	7.0
5.591	514.129365066	10.0
5.6013	514.361728022	8.0
5.6115	514.591174306	15.0
5.6218	514.822204782	5.0
5.632	515.050335312	7.0
5.6422	515.277813986	7.0
5.6525	515.506863268	3.0
5.6627	515.733037472	9.0
5.673	515.960773276	4.0
5.6832	516.185650488	7.0
5.6934	516.409885142	4.0
5.7037	516.635668006	4.0
5.7139	516.858616791	4.0
5.7242	517.083104908	6.0
5.7344	517.304775198	3.0
5.7446	517.525812094	5.0
5.7549	517.74837512	4.0
5.7651	517.968144484	4.0
5.7754	518.189431228	1.0
5.7856	518.407940329	12.0
5.7958	518.625825069	5.0
5.8061	518.845214175	4.0
5.8163	519.061849459	3.0
5.8266	519.279980484	9.0
5.8368	519.495373478	3.0
5.847	519.710151013	4.0
5.8573	519.926411462	5.0
5.8675	520.139957361	2.0
5.8778	520.354977669	3.0
5.888	520.567298994	0.0
5.8982	520.779013636	3.0
5.9085	520.992190045	6.0
5.9187	521.202690615	1.0
5.929	521.414644569	1.0
5.9392	521.623938028	1.0
5.9494	521.832633457	2.0
5.9597	522.042769806	2.0
5.9699	522.250268476	4.0
5.9802	522.459199803	2.0
5.9904	522.665508577	2.0
6.0006	522.871227849	2.0
6.0109	523.078367492	1.0
6.0211	523.282907072	1.0
6.0314	523.488858878	2.0
6.0416	523.692225529	2.0
6.0518	523.895011086	0.0
6.0621	524.099196759	1.0
6.0723	524.300819447	3.0
6.0826	524.503834222	3.0
6.0928	524.704300709	2.0
6.103	524.904194388	3.0
6.1133	525.105468217	2.0
6.1235	525.30421561	1.0
6.1338	525.504335238	0.0
6.144	525.701942919	0.0
6.1542	525.89898596	0.0
6.1645	526.097389469	0.0
6.1747	526.293302572	0.0
6.185	526.49056834	1.0
6.1952	526.685357984	0.0
6.2054	526.87959104	2.0
6.2157	527.075165162	1.0
6.2259	527.268284393	2.0
6.2362	527.462737	1.0
6.2464	527.654748794	0.0
6.2566	527.846211937	1.0
6.2669	528.038997022	2.0
6.2771	528.229362225	2.0
6.2874	528.421041788	1.0
6.2976	528.610315346	0.0
6.3078	528.799048078	1.0
6.3181	528.989083899	1.0
6.3283	529.176734348	0.0
6.3386	529.365680413	0.0
6.3488	529.552254784	0.0
6.359	529.738296042	0.0
6.3693	529.925621807	0.0
6.3795	530.110596216	2.0
6.3898	530.296847765	1.0
6.4	530.480761442	0.0
6.4102	530.664149609	1.0
6.4205	530.848803964	0.0
6.4307	531.031140496	1.0
6.441	531.214735955	0.0
6.4512	531.396026882	1.0
6.4614	531.576799792	0.0
6.4717	531.758820834	0.0
6.4819	531.938557107	0.0
6.4922	532.119534353	1.0
6.5024	532.298239932	0.0
6.5126	532.476434882	0.0
6.5229	532.655860164	1.0
6.5331	532.83303326	1.0
6.5434	533.011429631	0.0
6.5536	533.187586731	2.0
6.5638	533.363240484	0.0
6.5741	533.540107024	0.0
6.5843	533.714753495	3.0
6.5946	533.890605797	0.0
6.6048	534.064250761	0.0
6.615	534.237399557	0.0
6.6253	534.411743844	3.0
6.6355	534.583899722	0.0
6.6458	534.757244235	0.0
6.656	534.928412889	0.0
6.6662	535.099092449	2.0
6.6765	535.270950453	0.0
6.6867	535.440651255	0.0
6.697	535.611523743	1.0
6.7072	535.7802514	2.0
6.7174	535.948496938	0.0
6.7277	536.117904115	0.0
6.7379	536.285184853	3.0
6.7482	536.453620568	1.0
6.7584	536.619942039	0.0
6.7686	536.785788267	0.0
6.7789	536.952779566	1.0
6.7891	537.117674753	1.0
6.7994	537.283708445	0.0
6.8096	537.447658044	0.0
6.8198	537.611139177	0.0
6.8301	537.775749053	1.0
6.8403	537.938292707	0.0
6.8506	538.101958631	0.0
6.8608	538.263570182	1.0
6.871	538.424719949	0.0
6.8813	538.586982361	2.0
6.8915	538.747208018	0.0
6.9018	538.90853994	0.0
6.912	539.067846787	1.0
6.9222	539.226698434	0.0
6.9325	539.386646859	0.0
6.9427	539.544587575	1.0
6.953	539.70361878	1.0
6.9632	539.860653788	0.0
6.9734	540.017240089	0.0
6.9837	540.174907527	2.0
6.9939	540.330595887	1.0
7.0042	540.487359184	2.0
7.0144	540.642154753	1.0
7.0246	540.796508013	1.0
7.0349	540.951926992	0.0
7.0451	541.105395116	0.0
7.0554	541.259922848	1.0
7.0656	541.412510913	0.0
7.0758	541.564662977	0.0
7.0861	541.717865561	0.0
7.0963	541.869145112	1.0
7.1066	542.02146916	0.0
7.1168	542.171881202	0.0
7.127	542.32186346	0.0
7.1373	542.472881258	0.0
7.1475	542.622003447	1.0
7.1578	542.772155237	0.0
7.168	542.920422287	0.0
7.1782	543.068265683	2.0
7.1885	543.217129851	0.0
7.1987	543.364125443	2.0
7.209	543.512135953	0.0
7.2192	543.658288601	0.0
7.2294	543.804023636	0.0
7.2397	543.950764887	0.0
7.2499	544.095664208	0.0
7.2602	544.241563975	0.0
7.2704	544.385632374	0.0
7.2806	544.529289116	0.0
7.2909	544.673937723	0.0
7.3011	544.816770669	0.0
7.3114	544.960589792	0.0
7.3216	545.102603666	0.0
7.3318	545.244211752	2.0
7.3421	545.386797559	2.0
7.3523	545.527593597	1.0
7.3626	545.669361749	0.0
7.3728	545.809350395	0.0
7.383	545.948939042	1.0
7.3933	546.089491466	0.0
7.4035	546.228279644	0.0
7.4138	546.368026073	1.0
7.424	546.506018374	0.0
7.4342	546.643616379	2.0
7.4445	546.782164417	0.0
7.4547	546.918973369	0.0
7.465	547.056726907	0.0
7.4752	547.192751331	1.0
7.4854	547.328387083	1.0
7.4957	547.46495932	1.0
7.5059	547.599817271	0.0
7.5162	547.735606338	1.0
7.5264	547.869690949	0.0
7.5366	548.00339243	0.0
7.5469	548.138017042	1.0
7.5571	548.270951815	0.0
7.5674	548.404804426	1.0
7.5776	548.536976887	0.0
7.5878	548.668771683	0.0
7.5981	548.801476444	0.0
7.6083	548.932515465	0.0
7.6186	549.064459234	0.0
7.6288	549.194746815	2.0
7.639	549.324662115	1.0
7.6493	549.455474405	0.0
7.6595	549.584644709	1.0
7.6698	549.714706859	0.0
7.68	549.843136438	1.0
7.6902	549.971199047	0.0
7.7005	550.100145852	0.0
7.7107	550.227474089	0.0
7.721	550.355681452	2.0
7.7312	550.482279527	0.0
7.7414	550.608515864	1.0
7.7517	550.735623789	1.0
7.7619	550.861136227	1.0
7.7722	550.987515255	2.0
7.7824	551.112307944	1.0
7.7926	551.236744054	1.0
7.8029	551.362039322	0.0
7.8131	551.485761856	0.0
7.8234	551.610338622	0.0
7.8336	551.733351671	0.0
7.8438	551.856013227	1.0
7.8541	551.979521688	2.0
7.8643	552.101479844	1.0
7.8746	552.224280049	0.0
7.8848	552.345538838	1.0
7.895	552.466451145	1.0
7.9053	552.588198281	0.0
7.9155	552.70841722	0.0
7.9258	552.8294662	1.0
7.936	552.948995745	0.0
7.9462	553.06818375	0.0
7.9565	553.188194678	1.0
7.9667	553.306699202	0.0
7.977	553.42602193	0.0
7.9872	553.543846893	0.0
7.9974	553.661335185	1.0
8.0077	553.779634665	1.0
8.0179	553.896449223	1.0
8.0282	554.014070318	0.0
8.0384	554.130215006	0.0
8.0486	554.246027824	2.0
