TL-DOS Lehrstuhlversuch
detector=R1406902
job_number=2015-10-14-003
irradiation_dose [mSv]=1.0

[BEGIN DATA]
time [sec] 	 temperature [K] 	 photoncount 
0.0	118.878869929	0.0
0.0102	120.706782999	0.0
0.0205	122.544747364	0.0
0.0307	124.357107569	0.0
0.041	126.179433547	1.0
0.0512	127.976373218	2.0
0.0614	129.765689186	3.0
0.0717	131.564844212	2.0
0.0819	133.338935719	1.0
0.0922	135.12278257	2.0
0.1024	136.881779154	3.0
0.1126	138.633313013	1.0
0.1229	140.394478175	0.0
0.1331	142.131109044	1.0
0.1434	143.877289268	2.0
0.1536	145.599143949	0.0
0.1638	147.313693483	3.0
0.1741	149.037670952	1.0
0.1843	150.737632178	0.0
0.1946	152.446941121	1.0
0.2048	154.132438165	0.0
0.215	155.810784312	1.0
0.2253	157.49835932	2.0
0.2355	159.162425198	2.0
0.2458	160.835641412	1.0
0.256	162.485548524	1.0
0.2662	164.128455734	3.0
0.2765	165.780396933	0.0
0.2867	167.409325407	0.0
0.297	169.047211003	0.0
0.3072	170.662279679	0.0
0.3174	172.270496259	0.0
0.3277	173.887556071	0.0
0.3379	175.482089081	0.0
0.3482	177.08539008	0.0
0.3584	178.666355947	0.0
0.3686	180.240614402	0.0
0.3789	181.823529362	0.0
0.3891	183.384393182	0.0
0.3994	184.953839851	0.0
0.4096	186.501423003	0.0
0.4198	188.042440373	0.0
0.4301	189.591931463	0.0
0.4403	191.11983703	0.0
0.4506	192.656144217	0.0
0.4608	194.171049544	0.0
0.471	195.679527727	0.0
0.4813	197.196300704	0.0
0.4915	198.691943945	0.0
0.5018	200.195811403	2.0
0.512	201.678728909	0.0
0.5222	203.155354984	1.0
0.5325	204.640100704	0.0
0.5427	206.104162851	0.0
0.553	207.576275557	0.0
0.5632	209.027880678	0.0
0.5734	210.473327214	0.0
0.5837	211.926721945	0.0
0.5939	213.359869845	0.0
0.6042	214.800898314	0.0
0.6144	216.221852223	0.0
0.6246	217.636777588	0.0
0.6349	219.059483319	0.0
0.6451	220.462369739	0.0
0.6554	221.872970326	0.0
0.6656	223.263920236	0.0
0.6758	224.648968896	0.0
0.6861	226.041633637	0.0
0.6963	227.41489756	0.0
0.7066	228.795712762	0.0
0.7168	230.157292218	1.0
0.727	231.513095032	0.0
0.7373	232.876353111	0.0
0.7475	234.220620027	0.0
0.7578	235.572278774	0.0
0.768	236.905107946	0.0
0.7782	238.232282451	0.0
0.7885	239.566754801	0.0
0.7987	240.882636993	0.0
0.809	242.205754935	0.0
0.8192	243.510440896	0.0
0.8294	244.809591591	0.0
0.8397	246.115886033	1.0
0.8499	247.403982856	1.0
0.8602	248.699162644	0.0
0.8704	249.976299648	0.0
0.8806	251.248018266	0.0
0.8909	252.526729788	0.0
0.9011	253.787627942	0.0
0.9114	255.0554595	0.0
0.9216	256.305629255	0.0
0.9318	257.550495036	0.0
0.9421	258.802206062	0.0
0.9523	260.036479856	0.0
0.9626	261.277540653	0.0
0.9728	262.501312584	0.0
0.983	263.719892534	0.0
0.9933	264.945173191	0.0
1.0035	266.15338481	0.0
1.0138	267.368240121	0.0
1.024	268.566171627	1.0
1.0342	269.759020784	0.0
1.0445	270.958429158	0.0
1.0547	272.141128914	0.0
1.065	273.330332079	0.0
1.0752	274.502968791	0.0
1.0854	275.67063047	0.0
1.0957	276.844712866	0.0
1.1059	278.002439452	0.0
1.1162	279.166532125	0.0
1.1264	280.314408153	0.0
1.1366	281.457414197	1.0
1.1469	282.606705383	0.0
1.1571	283.739986118	0.0
1.1674	284.879498517	1.0
1.1776	286.003136692	0.0
1.1878	287.122007715	1.0
1.1981	288.247031166	0.0
1.2083	289.356382233	0.0
1.2186	290.471833381	1.0
1.2288	291.571745495	0.0
1.239	292.666991117	0.0
1.2493	293.768259256	0.0
1.2595	294.854185941	0.0
1.2698	295.9460839	0.0
1.28	297.022770937	0.0
1.2902	298.094890018	1.0
1.3005	299.172904449	1.0
1.3107	300.235901365	0.0
1.321	301.30474347	0.0
1.3312	302.358695838	0.0
1.3414	303.408176704	0.0
1.3517	304.463428437	0.0
1.3619	305.503979756	1.0
1.3722	306.550252841	1.0
1.3824	307.581950591	2.0
1.3926	308.609271256	0.0
1.4029	309.642240934	0.0
1.4131	310.660820604	1.0
1.4234	311.685001222	0.0
1.4336	312.694914269	0.0
1.4438	313.700542655	0.0
1.4541	314.711700773	1.0
1.4643	315.708772734	1.0
1.4746	316.711327376	0.0
1.4848	317.699915713	2.0
1.495	318.684309861	1.0
1.5053	319.674116978	1.0
1.5155	320.650135373	1.0
1.5258	321.63152068	2.0
1.536	322.599234586	0.0
1.5462	323.562842866	1.0
1.5565	324.531749817	4.0
1.5667	325.4871592	1.0
1.577	326.447822172	2.0
1.5872	327.395102419	1.0
1.5974	328.338363731	2.0
1.6077	329.286811833	1.0
1.6179	330.222047372	1.0
1.6282	331.162425567	2.0
1.6384	332.08970362	5.0
1.6486	333.0130476	4.0
1.6589	333.941468847	4.0
1.6691	334.85695652	6.0
1.6794	335.777478261	3.0
1.6896	336.685176474	4.0
1.6998	337.589023684	4.0
1.7101	338.497840952	1.0
1.7203	339.393997744	3.0
1.7306	340.295082307	4.0
1.7408	341.183614116	4.0
1.751	342.068376236	8.0
1.7613	342.958003471	4.0
1.7715	343.835237561	6.0
1.7818	344.71729537	5.0
1.792	345.587065481	8.0
1.8022	346.453145502	7.0
1.8125	347.323987909	12.0
1.8227	348.182698856	10.0
1.833	349.046131668	10.0
1.8432	349.897536242	14.0
1.8534	350.745328643	10.0
1.8637	351.597782871	7.0
1.8739	352.4383618	9.0
1.8842	353.283562889	10.0
1.8944	354.116989721	13.0
1.9046	354.946880653	15.0
1.9149	355.781334975	18.0
1.9251	356.60416475	16.0
1.9354	357.431519087	11.0
1.9456	358.247347784	8.0
1.9558	359.059715244	17.0
1.9661	359.876549735	24.0
1.9763	360.682005136	24.0
1.9866	361.491889561	14.0
1.9968	362.290491715	15.0
2.007	363.085705717	10.0
2.0173	363.885292428	30.0
2.0275	364.673740322	24.0
2.0378	365.46652372	30.0
2.048	366.248263076	27.0
2.0582	367.026685822	33.0
2.0685	367.809388945	33.0
2.0787	368.581188453	24.0
2.089	369.357231918	38.0
2.0992	370.122464541	33.0
2.1094	370.884450585	42.0
2.1197	371.650626625	40.0
2.1299	372.406129282	40.0
2.1402	373.165786285	49.0
2.1504	373.914860721	41.0
2.1606	374.660757131	47.0
2.1709	375.410755063	52.0
2.1811	376.150304985	48.0
2.1914	376.893921532	58.0
2.2016	377.627178968	70.0
2.2118	378.357325482	65.0
2.2221	379.091486913	74.0
2.2323	379.815420949	59.0
2.2426	380.543335741	67.0
2.2528	381.261110157	66.0
2.263	381.975839341	77.0
2.2733	382.694498666	89.0
2.2835	383.40314655	79.0
2.2938	384.115691136	88.0
2.304	384.818309464	79.0
2.3142	385.517946861	91.0
2.3245	386.221431411	88.0
2.3347	386.915115918	118.0
2.345	387.612614844	116.0
2.3552	388.300397111	122.0
2.3654	388.985261389	101.0
2.3757	389.673891588	121.0
2.3859	390.352928673	116.0
2.3962	391.035699636	131.0
2.4064	391.70895911	123.0
2.4166	392.379362211	143.0
2.4269	393.053451712	132.0
2.4371	393.718150663	145.0
2.4474	394.38650465	145.0
2.4576	395.045547985	157.0
2.4678	395.701795261	147.0
2.4781	396.361651098	131.0
2.4883	397.01231467	157.0
2.4986	397.6665561	127.0
2.5088	398.311683477	163.0
2.519	398.954073834	162.0
2.5293	399.599996556	171.0
2.5395	400.236921112	157.0
2.5498	400.877347976	161.0
2.56	401.508853236	164.0
2.5702	402.137679268	158.0
2.5805	402.769963079	150.0
2.5907	403.393438722	171.0
2.601	404.020342722	185.0
2.6112	404.6385135	147.0
2.6214	405.254061624	185.0
2.6317	405.872994514	169.0
2.6419	406.483305224	137.0
2.6522	407.0969719	190.0
2.6624	407.70208976	164.0
2.6726	408.304640344	172.0
2.6829	408.910504222	149.0
2.6931	409.507927983	154.0
2.7034	410.108636846	147.0
2.7136	410.700977404	153.0
2.7238	411.290804896	149.0
2.7341	411.883875721	141.0
2.7443	412.468684644	141.0
2.7546	413.056709304	126.0
2.7648	413.636542359	130.0
2.775	414.213915412	124.0
2.7853	414.794463314	123.0
2.7955	415.366923767	123.0
2.8058	415.942532056	125.0
2.816	416.510121708	122.0
2.8262	417.075303302	96.0
2.8365	417.643592707	115.0
2.8467	418.203965433	93.0
2.857	418.767419527	97.0
2.8672	419.323024301	102.0
2.8774	419.876271864	99.0
2.8877	420.432561615	95.0
2.8979	420.981101851	97.0
2.9082	421.53265839	89.0
2.9184	422.076531352	80.0
2.9286	422.618096875	93.0
2.9389	423.16264035	91.0
2.9491	423.699597944	89.0
2.9594	424.23950815	100.0
2.9696	424.77189702	87.0
2.9798	425.302027175	87.0
2.9901	425.835072401	98.0
3.0003	426.360691924	106.0
3.0106	426.889201715	84.0
3.0208	427.410348985	111.0
3.031	427.929285234	114.0
3.0413	428.451075	82.0
3.0515	428.965595861	109.0
3.0618	429.48294596	111.0
3.072	429.993089001	112.0
3.0822	430.501067707	114.0
3.0925	431.011839678	122.0
3.1027	431.515496228	108.0
3.113	432.021922277	103.0
3.1232	432.521293447	132.0
3.1334	433.018545984	96.0
3.1437	433.518532804	129.0
3.1539	434.011554449	128.0
3.1642	434.507287113	140.0
3.1744	434.996113865	134.0
3.1846	435.482866719	154.0
3.1949	435.972296121	133.0
3.2051	436.454907421	140.0
3.2154	436.940172495	141.0
3.2256	437.418677478	135.0
3.2358	437.895152355	152.0
3.2461	438.374247263	147.0
3.2563	438.846668035	155.0
3.2666	439.321686547	150.0
3.2768	439.79008771	148.0
3.287	440.256501632	154.0
3.2973	440.725480263	143.0
3.3075	441.187925686	173.0
3.3178	441.652913995	156.0
3.328	442.111424684	152.0
3.3382	442.567990093	179.0
3.3485	443.027066056	177.0
3.3587	443.479746762	158.0
3.369	443.934916661	182.0
3.3792	444.383745716	141.0
3.3894	444.830670568	168.0
3.3997	445.280052962	159.0
3.4099	445.723175137	168.0
3.4202	446.168733945	162.0
3.4304	446.608085799	168.0
3.4406	447.045573657	150.0
3.4509	447.485467165	181.0
3.4611	447.919232641	170.0
3.4714	448.3553833	194.0
3.4816	448.785458067	189.0
3.4918	449.213708197	171.0
3.5021	449.644313181	176.0
3.5123	450.06891953	168.0
3.5226	450.495860696	193.0
3.5328	450.916854265	167.0
3.543	451.336061726	174.0
3.5533	451.757574317	161.0
3.5635	452.173214935	160.0
3.5738	452.591141071	168.0
3.584	453.003245196	166.0
3.5942	453.413600927	167.0
3.6045	453.826213114	158.0
3.6147	454.233077318	155.0
3.625	454.642178779	167.0
3.6352	455.045581164	166.0
3.6454	455.447272072	154.0
3.6557	455.851171791	161.0
3.6659	456.249444897	152.0
3.6762	456.649908021	137.0
3.6864	457.044792406	163.0
3.6966	457.438001453	149.0
3.7069	457.833372671	155.0
3.7171	458.223236084	148.0
3.7274	458.615243272	140.0
3.7376	459.001789518	148.0
3.7478	459.386695802	134.0
3.7581	459.773718601	145.0
3.7683	460.155349896	127.0
3.7786	460.539079697	150.0
3.7888	460.917463868	138.0
3.799	461.294242704	143.0
3.8093	461.673093366	119.0
3.8195	462.046666365	138.0
3.8298	462.422293562	142.0
3.84	462.792688002	142.0
3.8502	463.161511006	148.0
3.8605	463.532362086	152.0
3.8707	463.898046946	163.0
3.881	464.265742627	145.0
3.8912	464.628316043	135.0
3.9014	464.989351204	134.0
3.9117	465.352371618	144.0
3.9219	465.710334898	127.0
3.9322	466.070266541	118.0
3.9424	466.425184077	160.0
3.9526	466.778595839	145.0
3.9629	467.133950935	138.0
3.9731	467.48435568	138.0
3.9834	467.836687224	124.0
3.9936	468.184110537	158.0
4.0038	468.530059871	141.0
4.0141	468.877911505	146.0
4.0243	469.220917316	155.0
4.0346	469.565809241	152.0
4.0448	469.905896575	143.0
4.055	470.244541053	142.0
4.0653	470.585047663	129.0
4.0755	470.920810772	167.0
4.0858	471.258420169	155.0
4.096	471.591326425	152.0
4.1062	471.922820292	118.0
4.1165	472.256136971	127.0
4.1267	472.58481031	159.0
4.137	472.915290952	164.0
4.1472	473.241167762	124.0
4.1574	473.565662006	119.0
4.1677	473.891940572	148.0
4.1779	474.213673845	133.0
4.1882	474.537176259	132.0
4.1984	474.856172052	155.0
4.2086	475.173814472	139.0
4.2189	475.493203539	134.0
4.2291	475.808143287	124.0
4.2394	476.12481482	140.0
4.2496	476.437074892	135.0
4.2598	476.748010168	122.0
4.2701	477.060655209	137.0
4.2803	477.368944881	128.0
4.2906	477.67892977	125.0
4.3008	477.984596348	134.0
4.311	478.288966104	144.0
4.3213	478.595009522	121.0
4.3315	478.896789537	132.0
4.3418	479.200228974	118.0
4.352	479.499441281	129.0
4.3622	479.79738415	102.0
4.3725	480.096965342	128.0
4.3827	480.392373153	153.0
4.393	480.689405347	123.0
4.4032	480.98229967	117.0
4.4134	481.273951358	123.0
4.4237	481.567206775	112.0
4.4339	481.856376934	130.0
4.4442	482.147137177	128.0
4.4544	482.433846921	112.0
4.4646	482.719340269	119.0
4.4749	483.006403483	136.0
4.4851	483.289467701	125.0
4.4954	483.574088427	118.0
4.5056	483.854744182	135.0
4.5158	484.134209226	119.0
4.5261	484.415210988	128.0
4.5363	484.692298193	115.0
4.5466	484.970909041	95.0
4.5568	485.24563864	122.0
4.567	485.51920267	145.0
4.5773	485.794270969	131.0
4.5875	486.06550737	118.0
4.5978	486.33823524	97.0
4.608	486.607163816	120.0
4.6182	486.874951434	104.0
4.6285	487.144211558	107.0
4.6387	487.409720695	96.0
4.649	487.676689809	106.0
4.6592	487.939939853	104.0
4.6694	488.20207303	122.0
4.6797	488.465647621	105.0
4.6899	488.725550429	114.0
4.7002	488.986882385	125.0
4.7104	489.244573801	117.0
4.7206	489.501171933	139.0
4.7309	489.759181043	123.0
4.7411	490.013595901	112.0
4.7514	490.269409731	90.0
4.7616	490.521659891	127.0
4.7718	490.772839853	110.0
4.7821	491.025400999	102.0
4.7923	491.274443788	119.0
4.8026	491.524856008	112.0
4.8128	491.771779807	107.0
4.823	492.017656006	114.0
4.8333	492.264884224	88.0
4.8435	492.508668376	115.0
4.8538	492.753793045	129.0
4.864	492.99550295	99.0
4.8742	493.236187377	118.0
4.8845	493.478195274	103.0
4.8947	493.716831828	107.0
4.905	493.956780593	131.0
4.9152	494.193386699	118.0
4.9254	494.42898898	123.0
4.9357	494.665886785	118.0
4.9459	494.899484435	116.0
4.9562	495.134366587	111.0
4.9664	495.365976663	93.0
4.9766	495.596604108	113.0
4.9869	495.828499724	106.0
4.9971	496.057164868	112.0
5.0074	496.287087391	118.0
5.0176	496.513806929	106.0
5.0278	496.739564586	95.0
5.0381	496.966563634	127.0
5.0483	497.190400424	124.0
5.0586	497.415468043	120.0
5.0688	497.637400309	121.0
5.079	497.858391004	108.0
5.0893	498.080596878	111.0
5.0995	498.299707266	95.0
5.1098	498.520022494	119.0
5.12	498.737268573	122.0
5.1302	498.953592963	135.0
5.1405	499.171106873	97.0
5.1507	499.385590659	112.0
5.161	499.601253845	111.0
5.1712	499.813912687	104.0
5.1814	500.025669303	116.0
5.1917	500.238590322	105.0
5.2019	500.448545198	94.0
5.2122	500.659654571	122.0
5.2224	500.867823039	127.0
5.2326	501.07510833	122.0
5.2429	501.283533438	110.0
5.2531	501.489055035	113.0
5.2634	501.69570675	98.0
5.2736	501.899479659	109.0
5.2838	502.10238804	110.0
5.2941	502.30641217	100.0
5.3043	502.507594098	106.0
5.3146	502.709882281	113.0
5.3248	502.909352445	125.0
5.335	503.107976336	108.0
5.3453	503.307692417	107.0
5.3555	503.504626309	133.0
5.3658	503.702643098	80.0
5.376	503.897901371	99.0
5.3862	504.092331241	106.0
5.3965	504.287830238	102.0
5.4067	504.480605794	88.0
5.417	504.67444138	105.0
5.4272	504.865576698	107.0
5.4374	505.055901105	108.0
5.4477	505.247272064	95.0
5.4579	505.435977088	85.0
5.4682	505.625719761	79.0
5.4784	505.812819181	99.0
5.4886	505.999124813	99.0
5.4989	506.1864549	86.0
5.5091	506.371175343	76.0
5.5194	506.556911525	111.0
5.5296	506.740060268	80.0
5.5398	506.922431983	93.0
5.5501	507.105806521	89.0
5.5603	507.28662652	85.0
5.5706	507.468440809	87.0
5.5808	507.647722294	86.0
5.591	507.82624316	97.0
5.6013	508.005745672	79.0
5.6115	508.182747586	91.0
5.6218	508.360722795	84.0
5.632	508.536218681	78.0
5.6422	508.710970008	82.0
5.6525	508.886682255	82.0
5.6627	509.059946704	73.0
5.673	509.234163896	64.0
5.6832	509.405954118	64.0
5.6934	509.577015502	65.0
5.7037	509.749017516	64.0
5.7139	509.918623418	73.0
5.7242	510.089161946	69.0
5.7344	510.25732475	68.0
5.7446	510.424774106	60.0
5.7549	510.593144229	50.0
5.7651	510.759168836	48.0
5.7754	510.926106376	56.0
5.7856	511.090718357	64.0
5.7958	511.254631954	63.0
5.8061	511.419446876	62.0
5.8163	511.581965808	58.0
5.8266	511.745378396	53.0
5.8368	511.90651453	57.0
5.847	512.066967027	57.0
5.8573	512.228301818	54.0
5.8675	512.387389099	51.0
5.8778	512.547351166	43.0
5.888	512.705084848	36.0
5.8982	512.862149327	44.0
5.9085	513.02007747	43.0
5.9187	513.175805561	52.0
5.929	513.332389967	34.0
5.9392	513.486793039	33.0
5.9494	513.640541041	30.0
5.9597	513.795134469	42.0
5.9699	513.9475743	35.0
5.9802	514.100852364	41.0
5.9904	514.251995155	30.0
6.0006	514.402496708	24.0
6.0109	514.553825835	33.0
6.0211	514.703046839	33.0
6.0314	514.853088377	21.0
6.0416	515.001039729	23.0
6.0518	515.148363381	22.0
6.0621	515.296497135	23.0
6.0723	515.442567279	25.0
6.0826	515.589440631	30.0
6.0928	515.734267932	16.0
6.103	515.878480788	27.0
6.1133	516.023486639	29.0
6.1235	516.166472455	25.0
6.1338	516.310244518	18.0
6.144	516.452013734	19.0
6.1542	516.593181479	21.0
6.1645	516.735125474	23.0
6.1747	516.875092088	22.0
6.185	517.015828348	20.0
6.1952	517.154604051	13.0
6.2054	517.292790984	20.0
6.2157	517.431737776	19.0
6.2259	517.56874894	18.0
6.2362	517.706513499	15.0
6.2464	517.842358899	17.0
6.2566	517.97762796	19.0
6.2669	518.113640836	19.0
6.2771	518.247758956	15.0
6.2874	518.382614562	9.0
6.2976	518.515591532	11.0
6.3078	518.648004334	6.0
6.3181	518.781145245	4.0
6.3283	518.912431408	12.0
6.3386	519.044439485	10.0
6.3488	519.174608595	16.0
6.359	519.304225448	8.0
6.3693	519.434555037	13.0
6.3795	519.563069041	12.0
6.3898	519.692289715	11.0
6.4	519.819710253	7.0
6.4102	519.946590196	3.0
6.4205	520.074167824	10.0
6.4307	520.199968205	7.0
6.441	520.326460334	12.0
6.4512	520.451190337	6.0
6.4614	520.57539116	9.0
6.4717	520.700274937	7.0
6.4819	520.823418992	11.0
6.4922	520.947240191	12.0
6.5024	521.069336471	5.0
6.5126	521.190914745	5.0
6.5229	521.313161551	9.0
6.5331	521.433705372	8.0
6.5434	521.554912037	5.0
6.5536	521.674430207	6.0
6.5638	521.793441308	3.0
6.5741	521.913106825	5.0
6.5843	522.031105316	3.0
6.5946	522.149752654	4.0
6.6048	522.266747151	8.0
6.615	522.383245286	7.0
6.6253	522.500384018	5.0
6.6355	522.615890925	2.0
6.6458	522.732032978	3.0
6.656	522.84655709	9.0
6.6662	522.960595321	3.0
6.6765	523.075260624	1.0
6.6867	523.188328556	4.0
6.697	523.302018225	12.0
6.7072	523.414124115	4.0
6.7174	523.525754384	1.0
6.7277	523.637998484	2.0
6.7379	523.748678942	1.0
6.7482	523.859968009	1.0
6.7584	523.969706739	6.0
6.7686	524.078979891	3.0
6.7789	524.188853913	2.0
6.7891	524.29719731	3.0
6.7994	524.406136465	3.0
6.8096	524.513558018	3.0
6.8198	524.620523825	1.0
6.8301	524.728077813	1.0
6.8403	524.834133498	7.0
6.8506	524.940772359	4.0
6.8608	525.045925664	3.0
6.871	525.150632846	3.0
6.8813	525.25591579	3.0
6.8915	525.359732066	4.0
6.9018	525.464119206	1.0
6.912	525.567052159	5.0
6.9222	525.669548407	2.0
6.9325	525.77260826	1.0
6.9427	525.874232415	0.0
6.953	525.97641538	2.0
6.9632	526.077174862	2.0
6.9734	526.177506862	3.0
6.9837	526.278390566	3.0
6.9939	526.377868887	5.0
7.0042	526.477894218	4.0
7.0144	526.576526125	2.0
7.0246	526.674739575	2.0
7.0349	526.77349308	5.0
7.0451	526.870870878	3.0
7.0554	526.968784135	3.0
7.0656	527.06533339	1.0
7.0758	527.161473024	5.0
7.0861	527.25814131	3.0
7.0963	527.353462937	0.0
7.1066	527.449308717	0.0
7.1168	527.543819297	3.0
7.127	527.637928906	3.0
7.1373	527.732556003	1.0
7.1475	527.825864876	2.0
7.1578	527.919686835	2.0
7.168	528.012201787	0.0
7.1782	528.104324234	0.0
7.1885	528.196953243	1.0
7.1987	528.288291863	2.0
7.209	528.380132734	3.0
7.2192	528.470694197	0.0
7.2294	528.560871442	0.0
7.2397	528.651544553	2.0
7.2499	528.740954522	2.0
7.2602	528.830856138	1.0
7.2704	528.919505359	2.0
7.2806	529.007778477	3.0
7.2909	529.096536989	1.0
7.3011	529.184059032	0.0
7.3114	529.272062339	1.0
7.3216	529.358839698	1.0
7.3318	529.445248894	3.0
7.3421	529.532133236	0.0
7.3523	529.617807216	1.0
7.3626	529.703952299	3.0
7.3728	529.788897319	1.0
7.383	529.873481951	2.0
7.3933	529.958531696	1.0
7.4035	530.042396637	0.0
7.4138	530.126722733	1.0
7.424	530.209874105	2.0
7.4342	530.2926727	1.0
7.4445	530.375926586	2.0
7.4547	530.458020685	1.0
7.465	530.540566203	0.0
7.4752	530.621961802	0.0
7.4854	530.703012071	3.0
7.4957	530.784508019	2.0
7.5059	530.864868669	0.0
7.5162	530.945671205	1.0
7.5264	531.025348104	1.0
7.5366	531.104686966	1.0
7.5469	531.184462094	0.0
7.5571	531.263125898	1.0
7.5674	531.342222257	0.0
7.5776	531.420216747	2.0
7.5878	531.497880337	1.0
7.5981	531.575970982	1.0
7.6083	531.652973769	4.0
7.6186	531.730399977	1.0
7.6288	531.806747583	2.0
7.639	531.882771276	1.0
7.6493	531.959213007	1.0
7.6595	532.034589849	1.0
7.6698	532.110381173	0.0
7.68	532.185116669	1.0
7.6902	532.259535092	1.0
7.7005	532.334362725	4.0
7.7107	532.408147956	2.0
7.721	532.482338916	2.0
7.7312	532.555496343	2.0
7.7414	532.628343392	0.0
7.7517	532.70159101	1.0
7.7619	532.773818237	2.0
7.7722	532.846442626	0.0
7.7824	532.918055305	2.0
7.7926	532.98936416	2.0
7.8029	533.061065126	1.0
7.8131	533.131767247	1.0
7.8234	533.202858143	0.0
7.8336	533.272958692	1.0
7.8438	533.342761832	1.0
7.8541	533.412948805	1.0
7.8643	533.482158022	0.0
7.8746	533.551747806	0.0
7.8848	533.620368155	1.0
7.895	533.688697374	2.0
