TL-DOS Lehrstuhlversuch
detector=R1408303
job_number=2015-10-21-013
irradiation_dose [mSv]=3.0

[BEGIN DATA]
time [sec] 	 temperature [K] 	 photoncount 
0.0	95.527274496	0.0
0.0102	97.7754316088	0.0
0.0205	100.034138133	2.0
0.0307	102.259593199	1.0
0.041	104.495491148	1.0
0.0512	106.698473415	1.0
0.0614	108.890358783	2.0
0.0717	111.092529509	0.0
0.0819	113.262281067	2.0
0.0922	115.44221412	2.0
0.1024	117.590055375	2.0
0.1126	119.72707749	1.0
0.1229	121.874127519	0.0
0.1331	123.989569835	1.0
0.1434	126.114938804	1.0
0.1536	128.209019237	0.0
0.1638	130.292551334	1.0
0.1741	132.385860345	0.0
0.1843	134.448352791	0.0
0.1946	136.520523422	3.0
0.2048	138.562188675	1.0
0.215	140.59356962	0.0
0.2253	142.634482759	1.0
0.2355	144.645350678	3.0
0.2458	146.665654535	3.0
0.256	148.656216569	0.0
0.2662	150.636751712	0.0
0.2765	152.626580458	1.0
0.2867	154.58711602	2.0
0.297	156.556851337	0.0
0.3072	158.497589274	0.0
0.3174	160.428551295	0.0
0.3277	162.368574298	1.0
0.3379	164.28003733	0.0
0.3482	166.200469846	0.0
0.3584	168.092630791	0.0
0.3686	169.975260513	0.0
0.3789	171.866724419	0.0
0.3891	173.730343215	0.0
0.3994	175.602706987	0.0
0.4096	177.447506831	0.0
0.4198	179.283014019	0.0
0.4301	181.127134271	0.0
0.4403	182.94410638	0.0
0.4506	184.769604577	0.0
0.4608	186.568228775	0.0
0.471	188.357792915	0.0
0.4813	190.155754531	1.0
0.4915	191.927247527	0.0
0.5018	193.707053203	0.0
0.512	195.46065754	0.0
0.5222	197.205428592	0.0
0.5325	198.958386932	0.0
0.5427	200.685539165	0.0
0.553	202.42079601	0.0
0.5632	204.13050734	0.0
0.5734	205.831606485	1.0
0.5837	207.540687987	0.0
0.5939	209.224609314	1.0
0.6042	210.916432393	0.0
0.6144	212.583349365	0.0
0.6246	214.241869716	0.0
0.6349	215.908172626	0.0
0.6451	217.549945124	0.0
0.6554	219.199421591	1.0
0.6656	220.824615355	0.0
0.6758	222.441622668	0.0
0.6861	224.06621774	0.0
0.6963	225.6668964	0.0
0.7066	227.275086198	0.0
0.7168	228.859601094	1.0
0.727	230.436134445	0.0
0.7373	232.020065634	1.0
0.7475	233.580679042	1.0
0.7578	235.148615583	0.0
0.768	236.693469809	0.0
0.7782	238.23054227	0.0
0.7885	239.774827398	1.0
0.7987	241.296378395	0.0
0.809	242.825069225	0.0
0.8192	244.331255494	0.0
0.8294	245.829854776	0.0
0.8397	247.335486193	0.0
0.8499	248.818952516	0.0
0.8602	250.309379961	0.0
0.8704	251.777866138	0.0
0.8806	253.238955233	1.0
0.8909	254.706900446	1.0
0.9011	256.153235361	0.0
0.9114	257.606357161	0.0
0.9216	259.038086886	1.0
0.9318	260.462604679	0.0
0.9421	261.89380698	0.0
0.9523	263.303939893	0.0
0.9626	264.720689814	0.0
0.9728	266.116583107	0.0
0.983	267.505444984	1.0
0.9933	268.900824055	1.0
1.0035	270.275661108	0.0
1.0138	271.656949543	0.0
1.024	273.017903396	0.0
1.0342	274.37200183	0.0
1.0445	275.732454332	0.0
1.0547	277.072878986	0.0
1.065	278.419593543	2.0
1.0752	279.746482496	0.0
1.0854	281.066687622	1.0
1.0957	282.393087772	1.0
1.1059	283.699961375	0.0
1.1162	285.012967445	0.0
1.1264	286.306644147	1.0
1.1366	287.59380432	1.0
1.1469	288.887004455	0.0
1.1571	290.161166796	0.0
1.1674	291.441308106	2.0
1.1776	292.702603866	1.0
1.1878	293.957546208	1.0
1.1981	295.218377329	0.0
1.2083	296.460647175	1.0
1.2186	297.708746336	1.0
1.2288	298.938471655	1.0
1.239	300.162002582	1.0
1.2493	301.391274892	3.0
1.2595	302.602450518	5.0
1.2698	303.819309551	4.0
1.28	305.018254641	0.0
1.2902	306.211160386	3.0
1.3005	307.409663807	4.0
1.3107	308.590523507	2.0
1.321	309.776924356	1.0
1.3312	310.945859653	3.0
1.3414	312.10890677	1.0
1.3517	313.277411451	6.0
1.3619	314.428714037	5.0
1.3722	315.585419077	7.0
1.3824	316.72509573	3.0
1.3926	317.859031585	2.0
1.4029	318.998288401	3.0
1.4131	320.120773693	6.0
1.4234	321.248526214	5.0
1.4336	322.359676571	7.0
1.4438	323.465229824	3.0
1.4541	324.575970853	13.0
1.4643	325.670360152	14.0
1.4746	326.769884842	4.0
1.4848	327.853222922	9.0
1.495	328.931103994	12.0
1.5053	330.014042991	4.0
1.5155	331.081039545	9.0
1.5258	332.153042949	11.0
1.536	333.209264898	14.0
1.5462	334.260166428	7.0
1.5565	335.315999283	14.0
1.5667	336.356288736	11.0
1.577	337.401459718	17.0
1.5872	338.431244256	10.0
1.5974	339.455841547	20.0
1.6077	340.485246731	21.0
1.6179	341.499497568	11.0
1.6282	342.518507746	24.0
1.6384	343.522516607	24.0
1.6486	344.521468059	21.0
1.6589	345.52510706	25.0
1.6691	346.513971031	29.0
1.6794	347.507475216	20.0
1.6896	348.486353569	36.0
1.6998	349.4603011	22.0
1.7101	350.438818851	25.0
1.7203	351.402931393	45.0
1.7306	352.371568004	28.0
1.7408	353.32594487	41.0
1.751	354.275514333	47.0
1.7613	355.229539623	48.0
1.7715	356.169520268	52.0
1.7818	357.113911744	62.0
1.792	358.044400399	57.0
1.8022	358.970201981	68.0
1.8125	359.900347861	62.0
1.8227	360.816800634	67.0
1.833	361.737553836	70.0
1.8432	362.644752206	66.0
1.8534	363.547380821	60.0
1.8637	364.454244995	81.0
1.8739	365.347758804	94.0
1.8842	366.245465401	83.0
1.8944	367.129956445	113.0
1.9046	368.009992117	107.0
1.9149	368.89415733	100.0
1.9251	369.765306341	109.0
1.9354	370.640543193	136.0
1.9456	371.50289528	142.0
1.9558	372.360903513	168.0
1.9661	373.222937925	152.0
1.9763	374.072281932	173.0
1.9866	374.92561146	178.0
1.9968	375.766378732	187.0
2.007	376.602910877	215.0
2.0173	377.443368425	189.0
2.0275	378.271453211	215.0
2.0378	379.10342376	251.0
2.048	379.923146488	252.0
2.0582	380.738740095	250.0
2.0685	381.558160851	243.0
2.0787	382.365518537	273.0
2.089	383.176664726	293.0
2.0992	383.975869658	328.0
2.1094	384.771048823	321.0
2.1197	385.569959342	336.0
2.1299	386.357108732	335.0
2.1402	387.147951797	349.0
2.1504	387.927152497	387.0
2.1606	388.702428195	411.0
2.1709	389.481341852	443.0
2.1811	390.248788762	376.0
2.1914	391.019836895	459.0
2.2016	391.779534073	465.0
2.2118	392.535404492	465.0
2.2221	393.294821811	495.0
2.2323	394.043059398	457.0
2.2426	394.794808068	550.0
2.2528	395.5354899	536.0
2.263	396.272440757	528.0
2.2733	397.012849735	556.0
2.2835	397.742358811	537.0
2.2938	398.475291088	567.0
2.304	399.197433531	581.0
2.3142	399.915938386	622.0
2.3245	400.637814805	614.0
2.3347	401.349064148	573.0
2.345	402.063651008	581.0
2.3552	402.767718107	613.0
2.3654	403.468238667	540.0
2.3757	404.172046399	617.0
2.3859	404.865493053	614.0
2.3962	405.562193686	610.0
2.4064	406.248637868	550.0
2.4166	406.931624283	549.0
2.4269	407.617815591	591.0
2.4371	408.293905161	537.0
2.4474	408.973167262	549.0
2.4576	409.642429633	555.0
2.4678	410.308320784	588.0
2.4781	410.97733661	515.0
2.4883	411.636503546	505.0
2.4986	412.298763604	513.0
2.5088	412.951274227	482.0
2.519	413.600498013	450.0
2.5293	414.252768262	435.0
2.5395	414.895436141	412.0
2.5498	415.54111972	403.0
2.56	416.177297894	391.0
2.5702	416.810271501	415.0
2.5805	417.446215318	377.0
2.5907	418.072797113	369.0
2.601	418.702319125	331.0
2.6112	419.322573654	325.0
2.6214	419.939703827	343.0
2.6317	420.559729865	287.0
2.6419	421.170628214	345.0
2.6522	421.784393186	330.0
2.6624	422.389122642	330.0
2.6726	422.990805944	296.0
2.6829	423.595312628	317.0
2.6931	424.19092009	307.0
2.7034	424.789322423	350.0
2.7136	425.3789154	291.0
2.7238	425.96553847	324.0
2.7341	426.554914251	346.0
2.7443	427.135613561	305.0
2.7546	427.719037784	311.0
2.7648	428.293873152	365.0
2.775	428.865812949	337.0
2.7853	429.440436557	402.0
2.7955	430.006600866	370.0
2.8058	430.575421885	382.0
2.816	431.135869028	370.0
2.8262	431.693493077	383.0
2.8365	432.253733761	417.0
2.8467	432.805726884	383.0
2.857	433.360310219	387.0
2.8672	433.906729277	428.0
2.8774	434.450395904	419.0
2.8877	434.996613671	482.0
2.8979	435.534790314	482.0
2.9082	436.075492336	482.0
2.9184	436.608234435	496.0
2.9286	437.138292996	498.0
2.9389	437.670838842	467.0
2.9491	438.195544836	499.0
2.9594	438.722712996	518.0
2.9696	439.242120472	540.0
2.9798	439.75891158	507.0
2.9901	440.278127715	558.0
3.0003	440.789700231	570.0
3.0106	441.303673285	566.0
3.0208	441.810079906	603.0
3.031	442.313935647	576.0
3.0413	442.820155716	572.0
3.0515	443.318923487	561.0
3.0618	443.820031711	559.0
3.072	444.31376289	575.0
3.0822	444.805007038	562.0
3.0925	445.298556335	620.0
3.1027	445.784839866	582.0
3.113	446.273405268	583.0
3.1232	446.754778274	623.0
3.1334	447.2337265	601.0
3.1437	447.714922177	589.0
3.1539	448.18903395	651.0
3.1642	448.66537048	562.0
3.1744	449.13469464	593.0
3.1846	449.601654712	591.0
3.1949	450.070805981	643.0
3.2051	450.533050659	598.0
3.2154	450.997464406	648.0
3.2256	451.455041304	581.0
3.2358	451.910313289	599.0
3.2461	452.367721624	614.0
3.2563	452.818396241	552.0
3.2666	453.271185635	567.0
3.2768	453.717309308	582.0
3.287	454.16118576	608.0
3.2973	454.607145089	568.0
3.3075	455.046539245	562.0
3.3178	455.487995246	577.0
3.328	455.922952369	537.0
3.3382	456.35571852	545.0
3.3485	456.790515413	534.0
3.3587	457.218911461	508.0
3.369	457.649317745	543.0
3.3792	458.07338782	533.0
3.3894	458.495321762	525.0
3.3997	458.919235617	509.0
3.4099	459.336908841	512.0
3.4202	459.756541984	481.0
3.4304	460.169997515	531.0
3.4406	460.58137038	548.0
3.4509	460.994673601	494.0
3.4611	461.401892395	470.0
3.4714	461.811022052	485.0
3.4816	462.214128722	450.0
3.4918	462.615204857	486.0
3.5021	463.01816303	483.0
3.5123	463.41518907	412.0
3.5226	463.814078143	488.0
3.5328	464.207094987	509.0
3.543	464.59813212	468.0
3.5533	464.991004183	475.0
3.5635	465.378092595	498.0
3.5738	465.766997409	456.0
3.584	466.150176976	460.0
3.5942	466.531426385	449.0
3.6045	466.914464795	506.0
3.6147	467.291864321	463.0
3.625	467.671034783	468.0
3.6352	468.044623302	494.0
3.6454	468.416329975	506.0
3.6557	468.78978087	468.0
3.6659	469.157734023	470.0
3.6762	469.527413786	475.0
3.6864	469.891651322	445.0
3.6966	470.254054116	484.0
3.7069	470.618157474	439.0
3.7171	470.976900698	459.0
3.7274	471.337327315	411.0
3.7376	471.692447926	490.0
3.7478	472.045779717	451.0
3.7581	472.400769508	460.0
3.7683	472.75053333	473.0
3.7786	473.101938409	437.0
3.7888	473.448170292	481.0
3.799	473.79265813	452.0
3.8093	474.138762468	446.0
3.8195	474.479771644	439.0
3.8298	474.822380995	475.0
3.84	475.159946637	429.0
3.8502	475.495811888	472.0
3.8605	475.833253176	454.0
3.8707	476.165726836	495.0
3.881	476.499760619	486.0
3.8912	476.828876937	463.0
3.9014	477.156335425	420.0
3.9117	477.485330502	472.0
3.9219	477.809482291	421.0
3.9322	478.135155153	443.0
3.9424	478.456033635	426.0
3.9526	478.775295783	426.0
3.9629	479.096056059	441.0
3.9731	479.412094275	429.0
3.9834	479.729615491	433.0
3.9936	480.042462332	448.0
4.0038	480.353733295	434.0
4.0141	480.666464888	440.0
4.0243	480.974592615	430.0
4.0346	481.284166223	403.0
4.0448	481.589182455	449.0
4.055	481.892662255	449.0
4.0653	482.197566125	444.0
4.0755	482.497981364	421.0
4.0858	482.799806293	410.0
4.096	483.097187918	423.0
4.1062	483.393071568	412.0
4.1165	483.690343644	400.0
4.1267	483.98323944	440.0
4.137	484.277509641	396.0
4.1472	484.567447755	451.0
4.1574	484.855925388	380.0
4.1677	485.145756694	418.0
4.1779	485.43132126	370.0
4.1882	485.71822583	423.0
4.1984	486.000906745	414.0
4.2086	486.282163735	374.0
4.2189	486.564740516	366.0
4.2291	486.843157353	369.0
4.2394	487.122880654	379.0
4.2496	487.398486019	376.0
4.2598	487.6727031	365.0
4.2701	487.948206937	356.0
4.2803	488.219654955	368.0
4.2906	488.492376735	374.0
4.3008	488.761083652	406.0
4.311	489.028437034	343.0
4.3213	489.297044965	393.0
4.3315	489.561698594	383.0
4.3418	489.827594103	346.0
4.352	490.089575241	389.0
4.3622	490.350236724	346.0
4.3725	490.612121353	351.0
4.3827	490.870150658	372.0
4.393	491.129390759	371.0
4.4032	491.384814466	379.0
4.4134	491.638951549	399.0
4.4237	491.894281162	365.0
4.4339	492.145851951	343.0
4.4442	492.398603229	380.0
4.4544	492.647633638	353.0
4.4646	492.895409628	374.0
4.4749	493.144348299	382.0
4.4851	493.38962223	336.0
4.4954	493.636047101	396.0
4.5056	493.878844238	354.0
4.5158	494.120418354	384.0
4.5261	494.363126049	312.0
4.5363	494.602260732	366.0
4.5466	494.842517548	338.0
4.5568	495.079237432	373.0
4.567	495.314764908	395.0
4.5773	495.551397589	351.0
4.5875	495.784546692	364.0
4.5978	496.01878984	390.0
4.608	496.249584587	383.0
4.6182	496.47921677	399.0
4.6285	496.709926496	375.0
4.6387	496.937239838	363.0
4.649	497.165619842	346.0
4.6592	497.390637758	392.0
4.6694	497.61452221	387.0
4.6797	497.839457233	357.0
4.6899	498.061080885	356.0
4.7002	498.283744499	366.0
4.7104	498.503130179	335.0
4.7206	498.721410767	359.0
4.7309	498.940715629	377.0
4.7411	499.156792004	358.0
4.7514	499.373882311	372.0
4.7616	499.587776731	382.0
4.7718	499.800593719	359.0
4.7821	500.014409345	352.0
4.7923	500.225077292	347.0
4.8026	500.436733793	359.0
4.8128	500.645274401	353.0
4.823	500.852764544	361.0
4.8333	501.061228329	340.0
4.8435	501.266623223	328.0
4.8538	501.472981926	366.0
4.864	501.676302728	361.0
4.8742	501.878599359	323.0
4.8845	502.081845261	334.0
4.8947	502.282099087	336.0
4.905	502.483292598	326.0
4.9152	502.681524246	315.0
4.9254	502.878757359	310.0
4.9357	503.076915982	350.0
4.9459	503.272157422	337.0
4.9562	503.468315025	317.0
4.9664	503.661584903	311.0
4.9766	503.853881238	297.0
4.9869	504.047079919	290.0
4.9971	504.237434432	324.0
5.0074	504.428682179	286.0
5.0176	504.617114479	294.0
5.0278	504.804597606	296.0
5.0381	504.992960491	267.0
5.0483	505.1785504	265.0
5.0586	505.365011184	275.0
5.0688	505.548726992	275.0
5.079	505.731517385	279.0
5.0893	505.915165516	285.0
5.0995	506.096110079	237.0
5.1098	506.277903718	250.0
5.12	506.45702109	221.0
5.1302	506.635236209	254.0
5.1405	506.814287597	251.0
5.1507	506.990703087	224.0
5.161	507.167946402	218.0
5.1712	507.342580436	244.0
5.1814	507.516334801	223.0
5.1917	507.690904503	262.0
5.2019	507.862904284	190.0
5.2122	508.03571117	200.0
5.2224	508.205974085	201.0
5.2326	508.375379349	202.0
5.2429	508.545579543	198.0
5.2531	508.713274141	134.0
5.2634	508.881755642	183.0
5.2736	509.047756848	156.0
5.2838	509.212921871	178.0
5.2941	509.378861925	181.0
5.3043	509.5423591	161.0
5.3146	509.70662348	161.0
5.3248	509.868469649	143.0
5.335	510.029500564	143.0
5.3453	510.191287112	166.0
5.3555	510.350691925	140.0
5.3658	510.510844741	131.0
5.376	510.668639873	123.0
5.3862	510.825640158	143.0
5.3965	510.983377161	125.0
5.4067	511.138792046	119.0
5.417	511.29493621	117.0
5.4272	511.448781704	116.0
5.4374	511.601852245	102.0
5.4477	511.755641065	93.0
5.4579	511.90716589	103.0
5.4682	512.05940174	106.0
5.4784	512.209396456	102.0
5.4886	512.358635616	88.0
5.4989	512.508575076	100.0
5.5091	512.656307209	90.0
5.5194	512.804732571	73.0
5.5296	512.950972894	71.0
5.5398	513.096476574	89.0
5.5501	513.242663025	56.0
5.5603	513.386697398	70.0
5.5706	513.531407648	73.0
5.5808	513.673987552	70.0
5.591	513.81584925	77.0
5.6013	513.95837663	57.0
5.6115	514.098805799	56.0
5.6218	514.239893927	63.0
5.632	514.378905033	57.0
5.6422	514.517215909	54.0
5.6525	514.656175805	57.0
5.6627	514.793090009	48.0
5.673	514.930646678	42.0
5.6832	515.066178312	58.0
5.6934	515.201027245	49.0
5.7037	515.336508952	47.0
5.7139	515.46999617	42.0
5.7242	515.604109773	42.0
5.7344	515.736249028	35.0
5.7446	515.867722669	39.0
5.7549	515.999813247	47.0
5.7651	516.129959258	38.0
5.7754	516.260715975	32.0
5.7856	516.389547763	36.0
5.7958	516.517730597	24.0
5.8061	516.646514926	33.0
5.8163	516.77340336	24.0
5.8266	516.900887216	33.0
5.8368	517.026494322	19.0
5.847	517.151468719	20.0
5.8573	517.277029554	27.0
5.8675	517.400741951	26.0
5.8778	517.525034864	25.0
5.888	517.647498004	25.0
5.8982	517.769344271	17.0
5.9085	517.891762298	16.0
5.9187	518.012378152	17.0
5.929	518.133559993	15.0
5.9392	518.252957861	16.0
5.9494	518.371754295	9.0
5.9597	518.491108179	17.0
5.9699	518.608704998	17.0
5.9802	518.726853638	8.0
5.9904	518.843262957	10.0
6.0006	518.959085897	16.0
6.0109	519.075452333	10.0
6.0211	519.190105685	12.0
6.0314	519.305297044	5.0
6.0416	519.418792619	10.0
6.0518	519.531716492	14.0
6.0621	519.645170256	8.0
6.0723	519.756953816	9.0
6.0826	519.869261917	10.0
6.0928	519.979916678	16.0
6.103	520.090014048	15.0
6.1133	520.200628046	8.0
6.1235	520.309613645	10.0
6.1338	520.419110655	9.0
6.144	520.526995709	4.0
6.1542	520.634337323	7.0
6.1645	520.742182635	10.0
6.1747	520.848440306	5.0
6.185	520.955196588	10.0
6.1952	521.060381262	9.0
6.2054	521.165036098	5.0
6.2157	521.270182023	5.0
6.2259	521.373780047	7.0
6.2362	521.477864202	9.0
6.2464	521.580416086	12.0
6.2566	521.682451394	9.0
6.2669	521.784965499	5.0
6.2771	521.885970447	6.0
6.2874	521.987449358	8.0
6.2976	522.087434352	6.0
6.3078	522.186915699	6.0
6.3181	522.28686386	3.0
6.3283	522.385340637	6.0
6.3386	522.484279514	12.0
6.3488	522.581761867	4.0
6.359	522.678753179	4.0
6.3693	522.776199621	3.0
6.3795	522.872211509	5.0
6.3898	522.968673929	3.0
6.4	523.063716282	8.0
6.4102	523.158279886	6.0
6.4205	523.253287227	6.0
6.4307	523.346895922	3.0
6.441	523.440943872	8.0
6.4512	523.533607299	7.0
6.4614	523.62580396	3.0
6.4717	523.718433252	3.0
6.4819	523.809698905	9.0
6.4922	523.901392819	7.0
6.5024	523.991736866	3.0
6.5126	524.081625829	5.0
6.5229	524.171936594	0.0
6.5331	524.260917853	3.0
6.5434	524.350316654	3.0
6.5536	524.438399374	5.0
6.5638	524.526038402	3.0
6.5741	524.614088673	6.0
6.5843	524.700842716	5.0
6.5946	524.78800385	2.0
6.6048	524.873881845	2.0
6.615	524.959327254	2.0
6.6253	525.045173612	3.0
6.6355	525.129756187	5.0
6.6458	525.214735664	6.0
6.656	525.298464118	2.0
6.6662	525.381770814	3.0
6.6765	525.465468424	1.0
6.6867	525.547933883	5.0
6.697	525.630786309	4.0
6.7072	525.712419026	2.0
6.7174	525.793640542	5.0
6.7277	525.875243187	4.0
6.7379	525.955644522	3.0
6.7482	526.036423138	1.0
6.7584	526.116012575	5.0
6.7686	526.195201103	0.0
6.7789	526.27476122	2.0
6.7891	526.353150096	2.0
6.7994	526.43190681	5.0
6.8096	526.50950411	1.0
6.8198	526.586710536	3.0
6.8301	526.664279251	4.0
6.8403	526.74070604	1.0
6.8506	526.817491461	2.0
6.8608	526.893146487	3.0
6.871	526.968420423	5.0
6.8813	527.04404758	8.0
6.8915	527.118561395	2.0
6.9018	527.193424863	7.0
6.912	527.267186232	4.0
6.9222	527.340576049	4.0
6.9325	527.414310246	1.0
6.9427	527.486958967	3.0
6.953	527.559948591	1.0
6.9632	527.6318637	2.0
6.9734	527.703416558	0.0
6.9837	527.775305175	2.0
6.9939	527.846135487	4.0
7.0042	527.917298168	2.0
7.0144	527.987413231	2.0
7.0246	528.057175109	4.0
7.0349	528.127264342	4.0
7.0451	528.19632176	2.0
7.0554	528.265703227	4.0
7.0656	528.334063298	2.0
7.0758	528.402079025	5.0
7.0861	528.470413913	4.0
7.0963	528.537742812	2.0
7.1066	528.60538765	3.0
7.1168	528.672036657	1.0
7.127	528.738349938	4.0
7.1373	528.804974393	3.0
7.1475	528.870618038	2.0
7.1578	528.936569715	4.0
7.168	529.001550486	2.0
7.1782	529.066203935	5.0
7.1885	529.131160769	1.0
7.1987	529.195161343	3.0
7.209	529.259462238	0.0
7.2192	529.32281653	0.0
7.2294	529.385851692	2.0
7.2397	529.449182646	2.0
7.2499	529.511581275	2.0
7.2602	529.574272708	1.0
7.2704	529.636041231	1.0
7.2806	529.697498613	3.0
7.2909	529.759244382	3.0
7.3011	529.820081164	2.0
7.3114	529.88120342	2.0
7.3216	529.941425867	3.0
7.3318	530.00134496	2.0
7.3421	530.061545223	2.0
7.3523	530.120859249	3.0
7.3626	530.180451605	2.0
7.3728	530.239166674	2.0
7.383	530.297585983	2.0
7.3933	530.356279423	3.0
7.4035	530.414108809	2.0
7.4138	530.472209558	1.0
7.424	530.52945498	1.0
7.4342	530.586412044	3.0
7.4445	530.643636377	3.0
7.4547	530.700018284	1.0
7.465	530.756664762	4.0
7.4752	530.812477321	1.0
7.4854	530.86800874	3.0
7.4957	530.923800739	3.0
7.5059	530.978771398	1.0
7.5162	531.034000005	1.0
7.5264	531.088415567	2.0
7.5366	531.142557025	2.0
7.5469	531.196952541	1.0
7.5571	531.250547275	2.0
7.5674	531.304393501	2.0
7.5776	531.357447032	3.0
7.5878	531.410233321	5.0
7.5981	531.463267308	2.0
7.6083	531.515520557	2.0
7.6186	531.568019003	1.0
7.6288	531.619744595	1.0
7.639	531.671209634	1.0
7.6493	531.722916172	4.0
7.6595	531.773861514	5.0
7.6698	531.825045915	1.0
7.68	531.875476807	1.0
7.6902	531.925653668	3.0
7.7005	531.976065982	1.0
7.7107	532.025736154	3.0
7.721	532.075639401	0.0
7.7312	532.124807999	2.0
7.7414	532.173728925	1.0
7.7517	532.222879411	4.0
7.7619	532.27130633	3.0
7.7722	532.31996049	3.0
7.7824	532.367898391	2.0
7.7926	532.415594817	3.0
7.8029	532.463515058	4.0
7.8131	532.510729843	3.0
7.8234	532.558166182	2.0
7.8336	532.604904189	0.0
7.8438	532.651406766	0.0
7.8541	532.698127556	1.0
7.8643	532.744160547	2.0
