TL-DOS Lehrstuhlversuch
detector=R1407502
job_number=2015-10-26-006
irradiation_dose [mSv]=0.5

[BEGIN DATA]
time [sec] 	 temperature [K] 	 photoncount 
0.0	135.876129106	0.0
0.0102	137.502364281	1.0
0.0205	139.138054645	0.0
0.0307	140.751464565	3.0
0.041	142.374255105	1.0
0.0512	143.974940916	1.0
0.0614	145.569333142	1.0
0.0717	147.172995416	1.0
0.0819	148.754813516	1.0
0.0922	150.345828556	0.0
0.1024	151.915171694	2.0
0.1126	153.47834448	2.0
0.1229	155.050605801	0.0
0.1331	156.601450672	0.0
0.1434	158.1613124	0.0
0.1536	159.69992658	5.0
0.1638	161.232491228	3.0
0.1741	162.773966449	2.0
0.1843	164.294444572	1.0
0.1946	165.823762995	0.0
0.2048	167.332249913	1.0
0.215	168.834805753	0.0
0.2253	170.346097692	1.0
0.2355	171.836803671	0.0
0.2458	173.33617685	0.0
0.256	174.815126421	0.0
0.2662	176.28826105	0.0
0.2765	177.769960718	0.0
0.2867	179.231477515	1.0
0.297	180.701491802	0.0
0.3072	182.15148239	0.0
0.3174	183.595771898	0.0
0.3277	185.048458734	0.0
0.3379	186.481357896	0.0
0.3482	187.92258816	0.0
0.3584	189.344186805	0.0
0.3686	190.760196002	0.0
0.3789	192.1844381	0.0
0.3891	193.589279982	0.0
0.3994	195.002289838	0.0
0.4096	196.396052476	0.0
0.4198	197.784335112	0.0
0.4301	199.180689442	0.0
0.4403	200.558023428	0.0
0.4506	201.943365452	0.0
0.4608	203.309837135	0.0
0.471	204.670936117	0.0
0.4813	206.039948744	1.0
0.4915	207.39031346	0.0
0.5018	208.74852941	0.0
0.512	210.088244515	1.0
0.5222	211.422692121	0.0
0.5325	212.764898416	0.0
0.5427	214.088821941	0.0
0.553	215.420442967	0.0
0.5632	216.733925408	0.0
0.5734	218.042243493	0.0
0.5837	219.358168345	0.0
0.5939	220.656168418	1.0
0.6042	221.961715269	0.0
0.6144	223.249478703	0.0
0.6246	224.532178902	0.0
0.6349	225.822336923	0.0
0.6451	227.094921146	0.0
0.6554	228.374904374	0.0
0.6656	229.637452399	0.0
0.6758	230.895036331	0.0
0.6861	232.159932055	0.0
0.6963	233.407598089	0.0
0.7066	234.66251825	0.0
0.7168	235.900344603	0.0
0.727	237.133304064	0.0
0.7373	238.373432147	0.0
0.7475	239.59666791	0.0
0.7578	240.827015759	0.0
0.768	242.040604509	0.0
0.7782	243.249421666	0.0
0.7885	244.465267076	0.0
0.7987	245.664550932	0.0
0.809	246.870807613	0.0
0.8192	248.060633353	0.0
0.8294	249.245780929	0.0
0.8397	250.437819141	0.0
0.8499	251.613620087	0.0
0.8602	252.796257325	1.0
0.8704	253.962785351	0.0
0.8806	255.124726817	0.0
0.8909	256.293423994	1.0
0.9011	257.446201842	0.0
0.9114	258.605682124	1.0
0.9216	259.749368625	1.0
0.9318	260.888558373	0.0
0.9421	262.034371551	1.0
0.9523	263.164577113	0.0
0.9626	264.301353869	0.0
0.9728	265.422646099	0.0
0.983	266.539529626	0.0
0.9933	267.662906891	1.0
1.0035	268.77098215	0.0
1.0138	269.885499934	1.0
1.024	270.98483639	0.0
1.0342	272.079850469	0.0
1.0445	273.181231134	0.0
1.0547	274.267609418	0.0
1.065	275.360304076	0.0
1.0752	276.43811467	2.0
1.0854	277.511687523	0.0
1.0957	278.591502298	0.0
1.1059	279.65660845	0.0
1.1162	280.727907298	0.0
1.1264	281.784613522	0.0
1.1366	282.837164984	2.0
1.1469	283.895836146	1.0
1.1571	284.940086692	2.0
1.1674	285.990408675	0.0
1.1776	287.02642377	0.0
1.1878	288.058365456	0.0
1.1981	289.096307013	3.0
1.2083	290.120110322	0.0
1.2186	291.149866184	0.0
1.2288	292.165595298	1.0
1.239	293.177330763	0.0
1.2493	294.194948618	0.0
1.2595	295.198705062	0.0
1.2698	296.208297504	1.0
1.28	297.204137852	0.0
1.2902	298.19606275	0.0
1.3005	299.193754857	1.0
1.3107	300.177856968	0.0
1.321	301.167680806	0.0
1.3312	302.144021826	0.0
1.3414	303.116524063	0.0
1.3517	304.094680582	0.0
1.3619	305.05951321	0.0
1.3722	306.029955527	0.0
1.3824	306.987179031	0.0
1.3926	307.940638918	2.0
1.4029	308.899642372	2.0
1.4131	309.845582827	1.0
1.4234	310.797023129	1.0
1.4336	311.735503452	1.0
1.4438	312.670293854	4.0
1.4541	313.610519275	3.0
1.4643	314.53793748	4.0
1.4746	315.470747841	4.0
1.4848	316.39085199	1.0
1.495	317.307338469	1.0
1.5053	318.229153545	3.0
1.5155	319.13841218	2.0
1.5258	320.052957389	1.0
1.536	320.955045184	0.0
1.5462	321.853586145	3.0
1.5565	322.757351365	3.0
1.5667	323.64880601	1.0
1.577	324.545443713	2.0
1.5872	325.429867927	0.0
1.5974	326.310814757	1.0
1.6077	327.196883552	1.0
1.6179	328.070882821	3.0
1.6282	328.949963661	1.0
1.6384	329.817070161	0.0
1.6486	330.680767368	0.0
1.6589	331.549486247	2.0
1.6691	332.406371931	3.0
1.6794	333.268239684	2.0
1.6896	334.118367565	1.0
1.6998	334.965152909	1.0
1.7101	335.816861597	3.0
1.7203	336.656968793	5.0
1.7306	337.501960506	4.0
1.7408	338.335442222	2.0
1.751	339.165646851	0.0
1.7613	340.00067842	2.0
1.7715	340.824335665	0.0
1.7818	341.652781782	4.0
1.792	342.469943279	5.0
1.8022	343.283891855	1.0
1.8125	344.102572857	1.0
1.8227	344.910102252	2.0
1.833	345.722326751	3.0
1.8432	346.52348759	2.0
1.8534	347.32149842	4.0
1.8637	348.124149012	4.0
1.8739	348.915866354	9.0
1.8842	349.712186866	5.0
1.8944	350.497660352	6.0
1.9046	351.28004551	7.0
1.9149	352.066979579	5.0
1.9251	352.84319448	8.0
1.9354	353.623922417	4.0
1.9456	354.394015722	7.0
1.9558	355.161081171	6.0
1.9661	355.932606459	4.0
1.9763	356.693622468	8.0
1.9866	357.459063145	11.0
1.9968	358.214077425	9.0
2.007	358.966123135	5.0
2.0173	359.722541359	6.0
2.0275	360.468656083	10.0
2.0378	361.219108837	12.0
2.048	361.959339349	11.0
2.0582	362.69665942	5.0
2.0685	363.438266387	12.0
2.0787	364.169771605	11.0
2.089	364.90552991	9.0
2.0992	365.631266134	10.0
2.1094	366.354148904	17.0
2.1197	367.08123463	14.0
2.1299	367.798416407	10.0
2.1402	368.519767992	18.0
2.1504	369.231293737	19.0
2.1606	369.940021901	9.0
2.1709	370.652870722	16.0
2.1811	371.356009523	24.0
2.1914	372.063236483	16.0
2.2016	372.760830001	18.0
2.2118	373.455680716	16.0
2.2221	374.154571404	27.0
2.2323	374.8439422	20.0
2.2426	375.537321106	25.0
2.2528	376.2212552	31.0
2.263	376.902500199	26.0
2.2733	377.587706063	31.0
2.2835	378.263578443	34.0
2.2938	378.943380452	35.0
2.304	379.613922584	23.0
2.3142	380.281828276	30.0
2.3245	380.953617277	38.0
2.3347	381.61625555	34.0
2.345	382.282746507	35.0
2.3552	382.940158903	52.0
2.3654	383.594986482	29.0
2.3757	384.253621332	31.0
2.3859	384.903284633	50.0
2.3962	385.556725179	40.0
2.4064	386.201264929	51.0
2.4166	386.843270475	39.0
2.4269	387.489008742	56.0
2.4371	388.125951131	59.0
2.4474	388.766596803	42.0
2.4576	389.398515964	48.0
2.4678	390.027950542	38.0
2.4781	390.661044752	53.0
2.4883	391.285515313	48.0
2.4986	391.913616645	50.0
2.5088	392.533162337	48.0
2.519	393.150272097	67.0
2.5293	393.77096983	70.0
2.5395	394.383212772	66.0
2.5498	394.999015392	65.0
2.56	395.606429898	64.0
2.5702	396.211456169	69.0
2.5805	396.820000158	64.0
2.5907	397.420254907	71.0
2.601	398.023999632	82.0
2.6112	398.61952049	65.0
2.6214	399.212699876	67.0
2.6317	399.809328101	64.0
2.6419	400.397829396	86.0
2.6522	400.98975233	84.0
2.6624	401.573612426	82.0
2.6726	402.155176899	69.0
2.6829	402.740122679	75.0
2.6931	403.317100661	86.0
2.7034	403.897433284	78.0
2.7136	404.469860945	65.0
2.7238	405.040037933	78.0
2.7341	405.613530021	90.0
2.7443	406.179210325	71.0
2.7546	406.748179584	81.0
2.7648	407.309398667	64.0
2.775	407.868411146	69.0
2.7853	408.430673813	52.0
2.7955	408.985277657	67.0
2.8058	409.543106055	80.0
2.816	410.093336032	64.0
2.8262	410.641402613	51.0
2.8365	411.192655739	57.0
2.8467	411.736400009	53.0
2.857	412.283305693	66.0
2.8672	412.82276174	55.0
2.8774	413.36009675	71.0
2.8877	413.900555912	57.0
2.8979	414.433653246	57.0
2.9082	414.969850092	54.0
2.9184	415.49874317	51.0
2.9286	416.025556743	58.0
2.9389	416.555433294	42.0
2.9491	417.078092168	37.0
2.9594	417.603789863	48.0
2.9696	418.122326803	36.0
2.9798	418.638824957	44.0
2.9901	419.158326113	40.0
3.0003	419.67075092	50.0
3.0106	420.186155045	36.0
3.0208	420.694538629	53.0
3.031	421.200923348	44.0
3.0413	421.710252267	45.0
3.0515	422.212643398	35.0
3.0618	422.71795551	42.0
3.072	423.216384548	42.0
3.0822	423.71285386	47.0
3.0925	424.212209723	54.0
3.1027	424.704763645	48.0
3.113	425.200181353	39.0
3.1232	425.688850763	49.0
3.1334	426.17559882	55.0
3.1437	426.665176907	49.0
3.1539	427.14808624	31.0
3.1642	427.633803284	53.0
3.1744	428.112904167	39.0
3.1846	428.590121319	39.0
3.1949	429.070113086	47.0
3.2051	429.543566679	66.0
3.2154	430.019773006	68.0
3.2256	430.489492721	63.0
3.2358	430.95736559	66.0
3.2461	431.427958745	40.0
3.2563	431.892141749	64.0
3.2666	432.359023586	56.0
3.2768	432.819545823	50.0
3.287	433.278257378	44.0
3.2973	433.739635954	55.0
3.3075	434.194729893	66.0
3.3178	434.65246982	72.0
3.328	435.103974675	63.0
3.3382	435.5537043	57.0
3.3485	436.006048725	65.0
3.3587	436.452231571	63.0
3.369	436.901008595	78.0
3.3792	437.343672633	71.0
3.3894	437.784596203	63.0
3.3997	438.228083372	61.0
3.4099	438.665529611	64.0
3.4202	439.105519232	75.0
3.4304	439.539515564	80.0
3.4406	439.971805507	55.0
3.4509	440.406608853	87.0
3.4611	440.835489554	83.0
3.4714	441.266863836	83.0
3.4816	441.692362183	75.0
3.4918	442.116187553	65.0
3.5021	442.542477111	72.0
3.5123	442.962959995	83.0
3.5226	443.385887634	78.0
3.5328	443.803054392	88.0
3.543	444.218580932	86.0
3.5533	444.636523409	84.0
3.5635	445.048772911	79.0
3.5738	445.463419297	86.0
3.584	445.872417606	85.0
3.5942	446.279807813	78.0
3.6045	446.689566652	78.0
3.6147	447.093743988	74.0
3.625	447.500271276	72.0
3.6352	447.90126108	83.0
3.6454	448.30067427	74.0
3.6557	448.702409712	76.0
3.6659	449.098672942	83.0
3.6762	449.497240109	86.0
3.6864	449.890378221	85.0
3.6966	450.281970591	79.0
3.7069	450.67583974	80.0
3.7171	451.064343828	71.0
3.7274	451.45510674	79.0
3.7376	451.840546902	84.0
3.7478	452.224471589	65.0
3.7581	452.610628474	68.0
3.7683	452.99152535	75.0
3.7786	453.37463682	73.0
3.7888	453.752529764	90.0
3.799	454.128936907	71.0
3.8093	454.50753254	101.0
3.8195	454.880971159	86.0
3.8298	455.256581009	72.0
3.84	455.627074516	69.0
3.8502	455.996111314	74.0
3.8605	456.36729375	73.0
3.8707	456.733420151	75.0
3.881	457.101675268	74.0
3.8912	457.464914223	66.0
3.9014	457.826724994	83.0
3.9117	458.19063939	63.0
3.9219	458.549596751	61.0
3.9322	458.910641146	52.0
3.9424	459.266767601	54.0
3.9526	459.621493835	73.0
3.9629	459.978282504	50.0
3.9731	460.330211201	60.0
3.9834	460.684186067	73.0
3.9936	461.033339288	63.0
4.0038	461.381119707	61.0
4.0141	461.730922177	65.0
4.0243	462.075959836	73.0
4.0346	462.423003598	61.0
4.0448	462.765320128	78.0
4.055	463.106290736	67.0
4.0653	463.449243802	58.0
4.0755	463.787525355	57.0
4.0858	464.127773731	57.0
4.096	464.463387437	55.0
4.1062	464.797681576	67.0
4.1165	465.133919353	65.0
4.1267	465.465577091	58.0
4.137	465.799163139	71.0
4.1472	466.128205268	53.0
4.1574	466.455953668	75.0
4.1677	466.785607648	66.0
4.1779	467.110771269	70.0
4.1882	467.437825443	70.0
4.1984	467.760424672	67.0
4.2086	468.081755502	65.0
4.2189	468.404954602	60.0
4.2291	468.723751267	63.0
4.2394	469.044401466	65.0
4.2496	469.36068395	77.0
4.2598	469.675722874	73.0
4.2701	469.992593483	65.0
4.2803	470.305147861	79.0
4.2906	470.61951948	68.0
4.3008	470.929608908	65.0
4.311	471.238479124	70.0
4.3213	471.549145161	63.0
4.3315	471.855579481	59.0
4.3418	472.16379546	57.0
4.352	472.467813095	61.0
4.3622	472.770635393	63.0
4.3725	473.075218347	72.0
4.3827	473.375652445	61.0
4.393	473.677833315	81.0
4.4032	473.975898049	67.0
4.4134	474.27279085	64.0
4.4237	474.571409833	57.0
4.4339	474.865961198	62.0
4.4442	475.162225132	80.0
4.4544	475.454453526	55.0
4.4646	475.745532936	72.0
4.4749	476.038304727	63.0
4.4851	476.327088547	71.0
4.4954	476.617551403	57.0
4.5056	476.904057738	69.0
4.5158	477.189437586	56.0
4.5261	477.476476678	62.0
4.5363	477.759605887	66.0
4.5466	478.044381254	70.0
4.5568	478.325277572	70.0
4.567	478.605069461	50.0
4.5773	478.886488105	70.0
4.5875	479.164073423	70.0
4.5978	479.443272667	62.0
4.608	479.718668817	59.0
4.6182	479.992982164	67.0
4.6285	480.268890411	54.0
4.6387	480.541040394	61.0
4.649	480.814772699	54.0
4.6592	481.084776379	52.0
4.6694	481.353718456	51.0
4.6797	481.624224206	70.0
4.6899	481.89104528	51.0
4.7002	482.159417694	56.0
4.7104	482.424134492	48.0
4.7206	482.687810475	62.0
4.7309	482.953019511	59.0
4.7411	483.214616021	66.0
4.7514	483.477733495	53.0
4.7616	483.737266932	50.0
4.7718	483.995779934	65.0
4.7821	484.255795971	67.0
4.7923	484.512270218	53.0
4.8026	484.770235647	49.0
4.8128	485.024687218	56.0
4.823	485.278138334	59.0
4.8333	485.533063055	48.0
4.8435	485.784515337	50.0
4.8538	486.037429602	48.0
4.864	486.286898813	56.0
4.8742	486.53538716	63.0
4.8845	486.785320257	51.0
4.8947	487.031848908	48.0
4.905	487.279810915	63.0
4.9152	487.524395325	46.0
4.9254	487.768018076	46.0
4.9357	488.013057289	55.0
4.9459	488.254758717	47.0
4.9562	488.497865435	58.0
4.9664	488.737660692	60.0
4.9766	488.976513121	42.0
4.9869	489.216754276	59.0
4.9971	489.453723002	44.0
5.0074	489.692069502	56.0
5.0176	489.927169381	40.0
5.0278	490.161344893	51.0
5.0381	490.396881939	55.0
5.0483	490.629210633	37.0
5.0586	490.862890123	48.0
5.0688	491.093386564	48.0
5.079	491.322976738	46.0
5.0893	491.553901786	52.0
5.0995	491.781681304	49.0
5.1098	492.010785167	52.0
5.12	492.236768309	48.0
5.1302	492.461862929	50.0
5.1405	492.688266284	58.0
5.1507	492.911585702	60.0
5.161	493.136203534	51.0
5.1712	493.35776175	56.0
5.1814	493.578448842	49.0
5.1917	493.800419044	54.0
5.2019	494.019365694	49.0
5.2122	494.239585334	53.0
5.2224	494.456805268	57.0
5.2326	494.673171135	53.0
5.2429	494.890794988	46.0
5.2531	495.105454492	31.0
5.2634	495.321362061	42.0
5.2736	495.534328659	43.0
5.2838	495.746457914	45.0
5.2941	495.959820523	50.0
5.3043	496.170276827	48.0
5.3146	496.381956758	51.0
5.3248	496.590753305	53.0
5.335	496.798728904	41.0
5.3453	497.007913707	57.0
5.3555	497.214249113	50.0
5.3658	497.421784186	70.0
5.376	497.626492334	44.0
5.3862	497.83039561	57.0
5.3965	498.035484412	49.0
5.4067	498.23777961	57.0
5.417	498.441250985	48.0
5.4272	498.641950789	59.0
5.4374	498.84186148	39.0
5.4477	499.042934483	53.0
5.4579	499.241268584	58.0
5.4682	499.440755832	42.0
5.4784	499.637525777	45.0
5.4886	499.833522061	61.0
5.4989	500.030657899	40.0
5.5091	500.225108464	61.0
5.5194	500.420689596	62.0
5.5296	500.613606633	35.0
5.5398	500.805765158	47.0
5.5501	500.999040922	50.0
5.5603	501.189683995	72.0
5.5706	501.381435496	41.0
5.5808	501.570575067	43.0
5.591	501.758970978	46.0
5.6013	501.948462253	46.0
5.6115	502.135372386	48.0
5.6218	502.323369244	40.0
5.632	502.508805315	48.0
5.6422	502.693512288	50.0
5.6525	502.879293176	48.0
5.6627	503.062543463	41.0
5.673	503.246859196	49.0
5.6832	503.428664285	55.0
5.6934	503.609754552	50.0
5.7037	503.791897706	39.0
5.7139	503.97155981	37.0
5.7242	504.152266498	53.0
5.7344	504.330511702	43.0
5.7446	504.508056081	48.0
5.7549	504.68663273	48.0
5.7651	504.86277691	46.0
5.7754	505.039945221	54.0
5.7856	505.214700245	48.0
5.7958	505.388768167	34.0
5.8061	505.563848147	46.0
5.8163	505.736543287	46.0
5.8266	505.910242504	34.0
5.8368	506.081575689	42.0
5.847	506.252235225	33.0
5.8573	506.423887003	36.0
5.8675	506.593200638	37.0
5.8778	506.76349869	45.0
5.888	506.931477038	32.0
5.8982	507.098794928	37.0
5.9085	507.26708563	49.0
5.9187	507.433083973	30.0
5.929	507.600047456	36.0
5.9392	507.764736657	32.0
5.9494	507.928778333	52.0
5.9597	508.093773773	31.0
5.9699	508.256521739	45.0
5.9802	508.420215947	41.0
5.9904	508.581680406	36.0
6.0006	508.742510018	38.0
6.0109	508.904274719	43.0
6.0211	509.063835953	30.0
6.0314	509.224324901	28.0
6.0416	509.382627761	38.0
6.0518	509.540308204	35.0
6.0621	509.698905426	32.0
6.0723	509.855342327	32.0
6.0826	510.012688777	35.0
6.0928	510.167891943	35.0
6.103	510.322484881	28.0
6.1133	510.477976646	31.0
6.1235	510.631350391	18.0
6.1338	510.785615876	20.0
6.144	510.937780043	28.0
6.1542	511.089345931	25.0
6.1645	511.241793046	18.0
6.1747	511.392163614	19.0
6.185	511.54340846	26.0
6.1952	511.692593135	28.0
6.2054	511.841191245	32.0
6.2157	511.990653328	22.0
6.2259	512.138079523	16.0
6.2362	512.286362877	22.0
6.2464	512.4326264	21.0
6.2566	512.578314843	21.0
6.2669	512.724850342	13.0
6.2771	512.869389818	14.0
6.2874	513.014769669	12.0
6.2976	513.158169238	11.0
6.3078	513.301004989	23.0
6.3181	513.444671208	16.0
6.3283	513.586380489	19.0
6.3386	513.728913689	12.0
6.3488	513.869505384	22.0
6.359	514.009544299	13.0
6.3693	514.150397423	17.0
6.3795	514.289331925	16.0
6.3898	514.429074215	8.0
6.4	514.566913014	9.0
6.4102	514.704209859	19.0
6.4205	514.842304969	18.0
6.4307	514.978519026	16.0
6.441	515.115525053	7.0
6.4512	515.250664861	8.0
6.4614	515.385273327	21.0
6.4717	515.520664427	15.0
6.4819	515.654211307	16.0
6.4922	515.788534649	11.0
6.5024	515.921028316	11.0
6.5126	516.053001043	11.0
6.5229	516.18574108	11.0
6.5331	516.316673008	11.0
6.5434	516.448366195	12.0
6.5536	516.578265532	10.0
6.5638	516.707654131	9.0
6.5741	516.837795015	2.0
6.5843	516.966163194	8.0
6.5946	517.095277726	3.0
6.6048	517.222633533	8.0
6.615	517.349488602	13.0
6.6253	517.477081227	4.0
6.6355	517.602935857	8.0
6.6458	517.729522226	8.0
6.656	517.854384308	7.0
6.6662	517.978755456	8.0
6.6765	518.103849718	11.0
6.6867	518.227240017	5.0
6.697	518.351347726	7.0
6.7072	518.473764911	9.0
6.7174	518.595700776	3.0
6.7277	518.718345594	2.0
6.7379	518.839319815	9.0
6.7482	518.960997399	2.0
6.7584	519.081017561	7.0
6.7686	519.200565826	6.0
6.7789	519.320809164	6.0
6.7891	519.439414616	3.0
6.7994	519.558709658	4.0
6.8096	519.676379731	2.0
6.8198	519.793587149	3.0
6.8301	519.911476029	4.0
6.8403	520.027759093	4.0
6.8506	520.144718246	2.0
6.8608	520.260084248	5.0
6.871	520.374996653	6.0
6.8813	520.490577177	0.0
6.8915	520.604583328	2.0
6.9018	520.71925233	5.0
6.912	520.832359376	3.0
6.9222	520.945021707	3.0
6.9325	521.058339074	1.0
6.9427	521.170112897	2.0
6.953	521.28253659	2.0
6.9632	521.393428912	2.0
6.9734	521.503885227	2.0
6.9837	521.614983752	3.0
6.9939	521.724568956	2.0
7.0042	521.834791307	2.0
7.0144	521.94351227	0.0
7.0246	522.051805765	2.0
7.0349	522.160728895	1.0
7.0451	522.268168335	1.0
7.0554	522.376232446	6.0
7.0656	522.482824569	2.0
7.0758	522.588997593	1.0
7.0861	522.695787923	2.0
7.0963	522.801123616	4.0
7.1066	522.907071747	3.0
7.1168	523.011576714	3.0
7.127	523.115670787	1.0
7.1373	523.220370079	1.0
7.1475	523.323643218	3.0
7.1578	523.427516802	2.0
7.168	523.52997548	5.0
7.1782	523.63203131	1.0
7.1885	523.734680509	0.0
7.1987	523.835931479	0.0
7.209	523.937771139	0.0
7.2192	524.038223596	1.0
7.2294	524.138281094	0.0
7.2397	524.238920341	3.0
7.2499	524.338188739	2.0
7.2602	524.438034298	5.0
7.2704	524.536519818	2.0
7.2806	524.634618112	1.0
7.2909	524.733286765	3.0
7.3011	524.83061141	3.0
7.3114	524.928501916	2.0
7.3216	525.025059013	0.0
7.3318	525.121236466	1.0
7.3421	525.217973111	1.0
7.3523	525.313392063	3.0
7.3626	525.409365797	1.0
7.3728	525.504032231	1.0
7.383	525.598326455	2.0
7.3933	525.69316892	0.0
7.4035	525.786719496	2.0
7.4138	525.880813989	0.0
7.424	525.97362678	2.0
7.4342	526.06607465	1.0
7.4445	526.159060027	2.0
7.4547	526.250778809	4.0
7.465	526.343030859	2.0
7.4752	526.434026304	1.0
7.4854	526.524663972	2.0
7.4957	526.615828623	0.0
7.5059	526.70575148	2.0
7.5162	526.796197163	4.0
7.5264	526.885410847	2.0
7.5366	526.974273759	0.0
7.5469	527.063653335	1.0
7.5571	527.151815433	3.0
7.5674	527.240490119	1.0
7.5776	527.327956929	1.0
7.5878	527.415079837	1.0
7.5981	527.502709291	3.0
7.6083	527.589145106	2.0
7.6186	527.676083473	2.0
7.6288	527.761837615	2.0
7.639	527.847254589	0.0
7.6493	527.93316819	2.0
7.6595	528.017911525	1.0
7.6698	528.103147571	0.0
7.68	528.18722258	1.0
7.6902	528.270967023	1.0
7.7005	528.355198369	0.0
7.7107	528.438282363	1.0
7.721	528.521849422	0.0
7.7312	528.604278177	2.0
7.7414	528.686382838	2.0
7.7517	528.768964869	2.0
7.7619	528.850422014	1.0
7.7722	528.932352764	1.0
7.7824	529.0131675	0.0
7.7926	529.093664489	4.0
7.8029	529.174629499	0.0
7.8131	529.25449165	2.0
7.8234	529.334818133	0.0
7.8336	529.414050453	0.0
7.8438	529.492971248	0.0
7.8541	529.572350901	1.0
7.8643	529.650649289	3.0
7.8746	529.729402916	1.0
7.8848	529.807083806	1.0
7.895	529.884459271	0.0
7.9053	529.962284608	0.0
7.9155	530.039049853	0.0
7.9258	530.116261423	0.0
7.936	530.192421261	0.0
7.9462	530.268281653	0.0
7.9565	530.34458311	0.0
7.9667	530.419845232	1.0
7.977	530.495544939	0.0
7.9872	530.570213508	1.0
7.9974	530.644588495	0.0
8.0077	530.71939591	2.0
8.0179	530.793184341	1.0
