TL-DOS Lehrstuhlversuch
detector=R1408105
job_number=2015-11-05-005
irradiation_dose [mSv]=0.06

[BEGIN DATA]
time [sec] 	 temperature [K] 	 photoncount 
0.0	249.888321852	0.0
0.0102	250.823194671	0.0
0.0205	251.764986536	2.0
0.0307	252.69541551	0.0
0.041	253.632730642	0.0
0.0512	254.558736896	0.0
0.0614	255.482550416	0.0
0.0717	256.413201131	2.0
0.0819	257.332623377	1.0
0.0922	258.258850317	0.0
0.1024	259.173902161	1.0
0.1126	260.086787211	2.0
0.1229	261.006428573	0.0
0.1331	261.914974295	0.0
0.1434	262.830244215	1.0
0.1536	263.734471237	0.0
0.1638	264.636557097	2.0
0.1741	265.545319344	0.0
0.1843	266.44311721	0.0
0.1946	267.347559728	0.0
0.2048	268.241089983	2.0
0.215	269.132504404	2.0
0.2253	270.030516234	1.0
0.2355	270.917693387	3.0
0.2458	271.811436589	1.0
0.256	272.694396616	0.0
0.2662	273.57526584	0.0
0.2765	274.462654426	1.0
0.2867	275.339336507	0.0
0.297	276.222506962	0.0
0.3072	277.095021805	0.0
0.3174	277.965470578	0.0
0.3277	278.842361591	0.0
0.3379	279.708672754	0.0
0.3482	280.581395535	0.0
0.3584	281.443588757	1.0
0.3686	282.30374035	0.0
0.3789	283.170257974	0.0
0.3891	284.026320905	0.0
0.3994	284.888719605	0.0
0.4096	285.740713308	0.0
0.4198	286.590689535	0.0
0.4301	287.446956483	0.0
0.4403	288.292892415	0.0
0.4506	289.145089166	0.0
0.4608	289.987004008	0.0
0.471	290.82692524	1.0
0.4813	291.673062775	0.0
0.4915	292.508991508	0.0
0.5018	293.351106996	1.0
0.512	294.183062207	1.0
0.5222	295.013047392	0.0
0.5325	295.849175344	0.0
0.5427	296.67521526	1.0
0.553	297.507368744	0.0
0.5632	298.329482144	0.0
0.5734	299.149648823	0.0
0.5837	299.975885601	0.0
0.5939	300.792153683	0.0
0.6042	301.61446301	1.0
0.6144	302.426851025	0.0
0.6246	303.237315349	1.0
0.6349	304.053777964	1.0
0.6451	304.860389809	0.0
0.6554	305.672971433	0.0
0.6656	306.475749112	1.0
0.6758	307.276625856	0.0
0.6861	308.083429933	0.0
0.6963	308.880499773	1.0
0.7066	309.683468771	0.0
0.7168	310.476749802	2.0
0.727	311.268152385	0.0
0.7373	312.065412182	1.0
0.7475	312.853052896	0.0
0.7578	313.646522982	0.0
0.768	314.430419707	1.0
0.7782	315.212460206	0.0
0.7885	316.00028863	0.0
0.7987	316.778611762	0.0
0.809	317.562695306	1.0
0.8192	318.337318739	0.0
0.8294	319.110107905	1.0
0.8397	319.888616527	0.0
0.8499	320.6577323	0.0
0.8602	321.432540343	0.0
0.8704	322.198000185	1.0
0.8806	322.961647459	0.0
0.8909	323.730946529	1.0
0.9011	324.490963865	0.0
0.9114	325.256606133	1.0
0.9216	326.013010787	0.0
0.9318	326.767624315	1.0
0.9421	327.527822779	1.0
0.9523	328.278849311	0.0
0.9626	329.035434232	0.0
0.9728	329.782890818	1.0
0.983	330.528577467	0.0
0.9933	331.279782984	0.0
1.0035	332.021925069	0.0
1.0138	332.76955979	0.0
1.024	333.508174162	2.0
1.0342	334.245039534	0.0
1.0445	334.987358488	1.0
1.0547	335.720721228	1.0
1.065	336.459511627	0.0
1.0752	337.189388386	0.0
1.0854	337.917536834	0.0
1.0957	338.65107435	1.0
1.1059	339.375761603	0.0
1.1162	340.105812306	4.0
1.1264	340.827054815	1.0
1.1366	341.546589459	0.0
1.1469	342.271449419	1.0
1.1571	342.987563813	1.0
1.1674	343.708978208	0.0
1.1776	344.421688608	0.0
1.1878	345.132711347	1.0
1.1981	345.848996405	0.0
1.2083	346.556639354	1.0
1.2186	347.269519608	1.0
1.2288	347.973798831	1.0
1.239	348.676410359	1.0
1.2493	349.384221953	2.0
1.2595	350.083493672	2.0
1.2698	350.78794074	1.0
1.28	351.483888526	1.0
1.2902	352.178188344	0.0
1.3005	352.877626714	0.0
1.3107	353.568626233	1.0
1.321	354.264739878	1.0
1.3312	354.952454785	0.0
1.3414	355.638541219	2.0
1.3517	356.329705417	1.0
1.3619	357.012530594	5.0
1.3722	357.700409398	0.0
1.3824	358.379988819	0.0
1.3926	359.057959031	1.0
1.4029	359.740946939	1.0
1.4131	360.415694474	1.0
1.4234	361.095435852	2.0
1.4336	361.766976028	4.0
1.4438	362.436926031	4.0
1.4541	363.111834372	3.0
1.4643	363.778599821	0.0
1.4746	364.450300039	0.0
1.4848	365.113896071	0.0
1.495	365.775920742	2.0
1.5053	366.442845095	1.0
1.5155	367.101722885	3.0
1.5258	367.765477065	1.0
1.536	368.421222931	1.0
1.5462	369.075416025	1.0
1.5565	369.734450839	3.0
1.5667	370.385534278	3.0
1.577	371.041436421	3.0
1.5872	371.689424987	0.0
1.5974	372.335879149	0.0
1.6077	372.987117754	2.0
1.6179	373.630499047	3.0
1.6282	374.278642041	1.0
1.6384	374.918965073	2.0
1.6486	375.557771852	5.0
1.6589	376.201306476	1.0
1.6691	376.837076739	2.0
1.6794	377.477552372	2.0
1.6896	378.11030055	2.0
1.6998	378.741550414	5.0
1.7101	379.377472193	1.0
1.7203	380.005721461	6.0
1.7306	380.638620436	6.0
1.7408	381.26388337	2.0
1.751	381.887665714	7.0
1.7613	382.516064706	4.0
1.7715	383.13688195	6.0
1.7818	383.762293898	8.0
1.792	384.380160136	8.0
1.8022	384.996563299	2.0
1.8125	385.617528497	7.0
1.8227	386.231001637	6.0
1.833	386.849015125	8.0
1.8432	387.459572169	11.0
1.8534	388.068683445	10.0
1.8637	388.682302788	5.0
1.8739	389.288518702	16.0
1.8842	389.899221254	8.0
1.8944	390.502555569	7.0
1.9046	391.104461219	6.0
1.9149	391.710821607	12.0
1.9251	392.309866147	8.0
1.9354	392.913344248	9.0
1.9456	393.509541277	10.0
1.9558	394.104326542	13.0
1.9661	394.703513846	15.0
1.9763	395.295471847	14.0
1.9866	395.891810961	13.0
1.9968	396.480955136	9.0
2.007	397.068704248	15.0
2.0173	397.660803325	17.0
2.0275	398.245758618	11.0
2.0378	398.835043198	14.0
2.048	399.417217952	9.0
2.0582	399.998014148	11.0
2.0685	400.583108848	14.0
2.0787	401.161144274	11.0
2.089	401.743457773	9.0
2.0992	402.318745553	9.0
2.1094	402.892671082	15.0
2.1197	403.470844266	13.0
2.1299	404.042041686	14.0
2.1402	404.617466569	12.0
2.1504	405.185948847	12.0
2.1606	405.753084988	14.0
2.1709	406.324418536	10.0
2.1811	406.88885884	11.0
2.1914	407.457476599	15.0
2.2016	408.019233881	12.0
2.2118	408.579660952	11.0
2.2221	409.144235774	15.0
2.2323	409.701998898	17.0
2.2426	410.263890059	7.0
2.2528	410.8190019	15.0
2.263	411.372799266	17.0
2.2733	411.930695317	16.0
2.2835	412.48186025	11.0
2.2938	413.037104386	6.0
2.304	413.585649401	14.0
2.3142	414.13289549	10.0
2.3245	414.684191777	12.0
2.3347	415.228836575	17.0
2.345	415.777512319	7.0
2.3552	416.319568191	7.0
2.3654	416.860340502	9.0
2.3757	417.4051151	5.0
2.3859	417.943316893	12.0
2.3962	418.485501948	12.0
2.4064	419.021145442	5.0
2.4166	419.555520559	9.0
2.4269	420.093850617	13.0
2.4371	420.625685625	9.0
2.4474	421.161456773	10.0
2.4576	421.690763745	16.0
2.4678	422.218817346	19.0
2.4781	422.750779101	11.0
2.4883	423.276322641	7.0
2.4986	423.805755758	8.0
2.5088	424.328801168	15.0
2.519	424.850608034	6.0
2.5293	425.376276821	10.0
2.5395	425.89560332	8.0
2.5498	426.418773382	10.0
2.56	426.935631303	7.0
2.5702	427.451265331	8.0
2.5805	427.970715595	10.0
2.5907	428.483898598	8.0
2.601	429.000879696	10.0
2.6112	429.511623324	11.0
2.6214	430.021157538	8.0
2.6317	430.534462842	7.0
2.6419	431.041575025	12.0
2.6522	431.552440373	7.0
2.6624	432.057142039	13.0
2.6726	432.560648596	9.0
2.6829	433.067881635	8.0
2.6931	433.568994814	13.0
2.7034	434.07381676	7.0
2.7136	434.572547937	11.0
2.7238	435.070098145	11.0
2.7341	435.57133075	12.0
2.7443	436.066515893	19.0
2.7546	436.565365928	15.0
2.7648	437.058197247	16.0
2.775	437.549861567	11.0
2.7853	438.045164722	9.0
2.7955	438.534491955	14.0
2.8058	439.027440726	13.0
2.816	439.51444198	18.0
2.8262	440.000290041	13.0
2.8365	440.48973389	13.0
2.8467	440.973272511	12.0
2.857	441.460389827	17.0
2.8672	441.941629985	12.0
2.8774	442.421730592	15.0
2.8877	442.905384449	11.0
2.8979	443.383202935	9.0
2.9082	443.864557782	13.0
2.9184	444.340104996	14.0
2.9286	444.814526138	9.0
2.9389	445.292458498	16.0
2.9491	445.764624518	16.0
2.9594	446.240285064	17.0
2.9696	446.710206679	13.0
2.9798	447.179015544	11.0
2.9901	447.65129409	15.0
3.0003	448.11787451	15.0
3.0106	448.587908117	9.0
3.0208	449.052270684	4.0
3.031	449.515533664	16.0
3.0413	449.982225279	21.0
3.0515	450.443286175	15.0
3.0618	450.907759409	13.0
3.072	451.366628688	14.0
3.0822	451.824411389	15.0
3.0925	452.285582166	13.0
3.1027	452.741188833	10.0
3.113	453.200167471	7.0
3.1232	453.653608448	15.0
3.1334	454.1059757	7.0
3.1437	454.561690948	5.0
3.1539	455.011907908	13.0
3.1642	455.465456949	17.0
3.1744	455.913533839	9.0
3.1846	456.360549706	14.0
3.1949	456.810873962	7.0
3.2051	457.255764974	11.0
3.2154	457.70394865	12.0
3.2256	458.146724908	11.0
3.2358	458.588452695	10.0
3.2461	459.033449734	14.0
3.2563	459.473077803	13.0
3.2666	459.915959584	13.0
3.2768	460.353497915	8.0
3.287	460.790000179	7.0
3.2973	461.22973302	6.0
3.3075	461.664160405	16.0
3.3178	462.101803011	6.0
3.328	462.534165379	8.0
3.3382	462.965503936	13.0
3.3485	463.400034854	7.0
3.3587	463.829323077	7.0
3.369	464.261788486	11.0
3.3792	464.689036122	8.0
3.3894	465.115272057	9.0
3.3997	465.544662589	13.0
3.4099	465.968872445	12.0
3.4202	466.396221903	15.0
3.4304	466.818415311	8.0
3.4406	467.239608988	12.0
3.4509	467.663919942	16.0
3.4611	468.083111508	7.0
3.4714	468.505405534	15.0
3.4816	468.922604506	5.0
3.4918	469.338815572	18.0
3.5021	469.75810704	11.0
3.5123	470.17233968	8.0
3.5226	470.589638079	21.0
3.5328	471.001901697	7.0
3.543	471.413189096	9.0
3.5533	471.827520456	9.0
3.5635	472.236852833	11.0
3.5738	472.649214702	12.0
3.584	473.05660135	8.0
3.5942	473.463023327	9.0
3.6045	473.872453256	9.0
3.6147	474.276943339	7.0
3.625	474.684427076	10.0
3.6352	475.086994447	11.0
3.6454	475.48860856	14.0
3.6557	475.893195041	7.0
3.6659	476.292900112	11.0
3.6762	476.695563424	4.0
3.6864	477.093368529	6.0
3.6966	477.490231652	10.0
3.7069	477.890031982	8.0
3.7171	478.285008648	15.0
3.7274	478.682908559	9.0
3.7376	479.076007734	7.0
3.7478	479.468176072	5.0
3.7581	479.863246869	7.0
3.7683	480.253551065	12.0
3.7786	480.646743924	6.0
3.7888	481.03519284	8.0
3.799	481.422721929	7.0
3.8093	481.813119143	3.0
3.8195	482.198806143	12.0
3.8298	482.587347635	11.0
3.84	482.971201302	13.0
3.8502	483.354146024	11.0
3.8605	483.739924942	4.0
3.8707	484.121049367	10.0
3.881	484.504994515	5.0
3.8912	484.884307294	7.0
3.9014	485.262721881	6.0
3.9117	485.643937136	5.0
3.9219	486.020552959	6.0
3.9322	486.399956137	6.0
3.9424	486.774781747	7.0
3.9526	487.148719789	6.0
3.9629	487.525425367	12.0
3.9731	487.897585925	7.0
3.9834	488.272500863	7.0
3.9936	488.642892384	11.0
4.0038	489.012406838	4.0
4.0141	489.384656089	11.0
4.0243	489.752414085	7.0
4.0346	490.122893878	12.0
4.0448	490.488903766	8.0
4.055	490.854046961	11.0
4.0653	491.221892601	6.0
4.0755	491.585300116	12.0
4.0858	491.951397231	11.0
4.096	492.313077318	8.0
4.1062	492.673900966	8.0
4.1165	493.037395089	10.0
4.1267	493.396503589	10.0
4.137	493.758269872	6.0
4.1472	494.115671379	12.0
4.1574	494.472226577	6.0
4.1677	494.831420661	8.0
4.1779	495.186281002	6.0
4.1882	495.543767685	13.0
4.1984	495.896941226	7.0
4.2086	496.249278471	9.0
4.2189	496.604223383	6.0
4.2291	496.95488582	9.0
4.2394	497.308143529	8.0
4.2496	497.657139121	9.0
4.2598	498.005308308	4.0
4.2701	498.356054316	7.0
4.2803	498.702568509	6.0
4.2906	499.051647273	10.0
4.3008	499.396514338	3.0
4.311	499.740564776	7.0
4.3213	500.08716155	5.0
4.3315	500.429576572	7.0
4.3418	500.774525826	9.0
4.352	501.115313204	11.0
4.3622	501.455293616	12.0
4.3725	501.797790242	7.0
4.3827	502.136154584	7.0
4.393	502.47702318	7.0
4.4032	502.813779133	11.0
4.4134	503.149737667	2.0
4.4237	503.488182648	16.0
4.4339	503.822544229	6.0
4.4442	504.159380438	5.0
4.4544	504.492152658	6.0
4.4646	504.82413689	7.0
4.4749	505.158578156	6.0
4.4851	505.488984328	3.0
4.4954	505.821835854	8.0
4.5056	506.150671466	8.0
4.5158	506.478728412	7.0
4.5261	506.809213326	16.0
4.5363	507.13571088	5.0
4.5466	507.46462486	7.0
4.5568	507.789570433	11.0
4.567	508.113746552	4.0
4.5773	508.440321917	7.0
4.5875	508.76295709	4.0
4.5978	509.087980105	9.0
4.608	509.409081657	9.0
4.6182	509.729422858	5.0
4.6285	510.052134923	6.0
4.6387	510.370953407	6.0
4.649	510.692131485	2.0
4.6592	511.009434491	10.0
4.6694	511.32598614	7.0
4.6797	511.644880605	6.0
4.6899	511.959927551	7.0
4.7002	512.277306177	5.0
4.7104	512.590855572	7.0
4.7206	512.903662498	3.0
4.7309	513.218784526	4.0
4.7411	513.530104549	8.0
4.7514	513.84372867	5.0
4.7616	514.153568858	10.0
4.7718	514.462675361	6.0
4.7821	514.774069578	5.0
4.7923	515.081706768	9.0
4.8026	515.391620797	5.0
4.8128	515.697795658	5.0
4.823	516.003245512	6.0
4.8333	516.310956018	6.0
4.8435	516.614953941	6.0
4.8538	516.921201769	6.0
4.864	517.223754661	2.0
4.8742	517.525591124	8.0
4.8845	517.829661496	5.0
4.8947	518.130063203	5.0
4.905	518.4326882	6.0
4.9152	518.731661972	9.0
4.9254	519.029927789	7.0
4.9357	519.330401088	4.0
4.9459	519.627249123	7.0
4.9562	519.926294146	2.0
4.9664	520.221731136	7.0
4.9766	520.516468548	3.0
4.9869	520.813387327	1.0
4.9971	521.106723727	4.0
5.0074	521.402231126	0.0
5.0176	521.694173175	6.0
5.0278	521.985423921	7.0
5.0381	522.278830229	3.0
5.0483	522.568696537	5.0
5.0586	522.860708161	5.0
5.0688	523.149196613	4.0
5.079	523.437001939	3.0
5.0893	523.726937328	5.0
5.0995	524.013374593	2.0
5.1098	524.301931797	0.0
5.12	524.587007506	1.0
5.1302	524.871408171	1.0
5.1405	525.157913701	3.0
5.1507	525.440962489	2.0
5.161	525.726106137	6.0
5.1712	526.007809476	3.0
5.1814	526.288845756	5.0
5.1917	526.571962	1.0
5.2019	526.851662396	3.0
5.2122	527.13343287	6.0
5.2224	527.411803733	1.0
5.2326	527.689515427	6.0
5.2429	527.969282481	2.0
5.2531	528.245674095	3.0
5.2634	528.524111299	2.0
5.2736	528.799189107	3.0
5.2838	529.073615545	3.0
5.2941	529.350073029	6.0
5.3043	529.623195003	5.0
5.3146	529.898338368	0.0
5.3248	530.170162078	3.0
5.335	530.441342124	3.0
5.3453	530.714529188	3.0
5.3555	530.984420201	2.0
5.3658	531.256308693	1.0
5.376	531.5249168	1.0
5.3862	531.792888857	1.0
5.3965	532.062844191	4.0
5.4067	532.329542464	3.0
5.417	532.598214586	1.0
5.4272	532.86364513	2.0
5.4374	533.128447149	3.0
5.4477	533.395208982	3.0
5.4579	533.658752285	6.0
5.4682	533.924246087	1.0
5.4784	534.186536658	3.0
5.4886	534.448206138	2.0
5.4989	534.711812249	0.0
5.5091	534.972237904	2.0
5.5194	535.234590984	3.0
5.5296	535.493778727	2.0
5.5398	535.752352726	3.0
5.5501	536.012840446	1.0
5.5603	536.270185334	0.0
5.5706	536.529434846	3.0
5.5808	536.785556466	0.0
5.591	537.041071603	1.0
5.6013	537.298477822	0.0
5.6115	537.552778388	2.0
5.6218	537.808961047	2.0
5.632	538.062052816	0.0
5.6422	538.314545276	1.0
5.6525	538.568906447	2.0
5.6627	538.820198704	5.0
5.673	539.07335079	4.0
5.6832	539.323448549	1.0
5.6934	539.572954091	1.0
5.7037	539.824306236	1.0
5.7139	540.072625772	5.0
5.7242	540.322783135	1.0
5.7344	540.569922304	2.0
5.7446	540.81647626	2.0
5.7549	541.064854976	1.0
5.7651	541.310236958	2.0
5.7754	541.557435025	1.0
5.7856	541.801650603	3.0
5.7958	542.045287891	1.0
5.8061	542.290728352	2.0
5.8163	542.533207529	0.0
5.8266	542.777481308	0.0
5.8368	543.01880788	2.0
5.847	543.259563003	0.0
5.8573	543.502099968	0.0
5.8675	543.741710681	0.0
5.8778	543.983094765	2.0
5.888	544.221566507	0.0
5.8982	544.459473561	3.0
5.9085	544.699141378	0.0
5.9187	544.935917558	0.0
5.929	545.174446133	1.0
5.9392	545.410096817	0.0
5.9494	545.645189493	1.0
5.9597	545.882022102	0.0
5.9699	546.115997284	0.0
5.9802	546.351704128	0.0
5.9904	546.584567127	0.0
6.0006	546.816878718	1.0
6.0109	547.05090966	0.0
6.0211	547.282116976	0.0
6.0314	547.515035471	1.0
6.0416	547.745143762	1.0
6.0518	547.974707168	0.0
6.0621	548.205969586	0.0
6.0723	548.43444178	3.0
6.0826	548.664604911	1.0
6.0928	548.891991081	0.0
6.103	549.118838813	2.0
6.1133	549.347365457	1.0
6.1235	549.573134886	0.0
6.1338	549.800575247	3.0
6.144	550.025271498	1.0
6.1542	550.249435681	0.0
6.1645	550.475258916	1.0
6.1747	550.698357552	1.0
6.185	550.923107353	0.0
6.1952	551.145145507	2.0
6.2054	551.366657887	0.0
6.2157	551.589809692	0.0
6.2259	551.81026913	0.0
6.2362	552.0323602	2.0
6.2464	552.251771702	1.0
6.2566	552.470663648	0.0
6.2669	552.691175626	0.0
6.2771	552.909027087	1.0
6.2874	553.128490879	1.0
6.2976	553.3453068	0.0
6.3078	553.561609312	1.0
6.3181	553.779512692	1.0
6.3283	553.994787027	0.0
6.3386	554.21165462	0.0
6.3488	554.425905666	1.0
6.359	554.639649376	0.0
6.3693	554.854975016	2.0
6.3795	555.067702713	1.0
6.3898	555.282004819	0.0
6.4	555.493721332	0.0
6.4102	555.704936511	0.0
6.4205	555.917714905	1.0
6.4307	556.127926089	0.0
6.441	556.339693058	0.0
6.4512	556.54890502	0.0
6.4614	556.757621579	0.0
6.4717	556.967882861	2.0
6.4819	557.175607302	1.0
6.4922	557.384869124	0.0
6.5024	557.591606163	0.0
6.5126	557.79785366	2.0
6.5229	558.005627607	0.0
6.5331	558.210894722	0.0
6.5434	558.417681032	2.0
6.5536	558.621972427	0.0
6.5638	558.82578007	0.0
6.5741	559.031096105	1.0
6.5843	559.233934965	0.0
6.5946	559.438275047	1.0
6.6048	559.640149728	1.0
6.615	559.841546381	0.0
6.6253	560.044433582	1.0
6.6355	560.244872912	0.0
6.6458	560.446795704	1.0
6.656	560.646282261	1.0
6.6662	560.845296445	0.0
6.6765	561.045783543	0.0
6.6867	561.243851728	1.0
6.697	561.443385827	1.0
6.7072	561.640512511	1.0
6.7174	561.837172409	1.0
6.7277	562.035287798	0.0
6.7379	562.231012889	2.0
6.7482	562.428186552	0.0
6.7584	562.622981279	0.0
6.7686	562.817314742	0.0
6.7789	563.013086478	0.0
6.7891	563.206496193	1.0
6.7994	563.401337344	0.0
6.8096	563.5938277	0.0
6.8198	563.78586225	2.0
6.8301	563.979318058	0.0
6.8403	564.170439787	2.0
6.8506	564.362976018	0.0
6.8608	564.553189264	3.0
6.871	564.742952096	0.0
6.8813	564.934119373	1.0
6.8915	565.122980182	1.0
6.9018	565.31323876	0.0
6.912	565.501201834	2.0
6.9222	565.688719821	1.0
6.9325	565.877625639	0.0
6.9427	566.064252275	0.0
6.953	566.252260144	1.0
6.9632	566.437999664	0.0
6.9734	566.623299363	1.0
6.9837	566.809970475	0.0
6.9939	566.994389367	0.0
7.0042	567.180173153	1.0
7.0144	567.363715423	0.0
7.0246	567.546823076	2.0
7.0349	567.731285918	0.0
7.0451	567.913523182	1.0
7.0554	568.097109195	0.0
7.0656	568.278480209	0.0
7.0758	568.459421746	0.0
7.0861	568.641702441	1.0
7.0963	568.821783887	2.0
7.1066	569.003198125	1.0
7.1168	569.182423568	1.0
7.127	569.361224614	0.0
7.1373	569.541348977	1.0
7.1475	569.719300106	0.0
7.1578	569.898568262	1.0
7.168	570.075673515	0.0
7.1782	570.252359392	0.0
7.1885	570.430352931	0.0
7.1987	570.606198946	2.0
7.209	570.783346407	1.0
7.2192	570.958356551	0.0
7.2294	571.132952281	0.0
7.2397	571.308840203	0.0
7.2499	571.482606006	0.0
7.2602	571.657657858	1.0
7.2704	571.830597679	0.0
7.2806	572.003127987	1.0
7.2909	572.176935202	0.0
7.3011	572.348645401	0.0
7.3114	572.521626436	1.0
7.3216	572.692520424	0.0
7.3318	572.863009744	0.0
7.3421	573.034760865	0.0
7.3523	573.204439778	0.0
7.3626	573.375374493	1.0
7.3728	573.544246851	0.0
7.383	573.712719327	1.0
7.3933	573.882438677	0.0
7.4035	574.050110333	1.0
7.4138	574.219022936	0.0
7.424	574.385897578	0.0
7.4342	574.552377069	2.0
7.4445	574.720088684	1.0
7.4547	574.885776829	0.0
7.465	575.05269124	2.0
7.4752	575.217591799	1.0
7.4854	575.382101881	0.0
7.4957	575.547829512	0.0
7.5059	575.711557609	0.0
7.5162	575.876497467	0.0
7.5264	576.039447296	0.0
7.5366	576.202011268	0.0
7.5469	576.365778385	0.0
7.5571	576.527569621	0.0
7.5674	576.690558284	0.0
7.5776	576.851580459	3.0
7.5878	577.012221342	1.0
7.5981	577.174051137	0.0
7.6083	577.333928426	0.0
7.6186	577.494988976	2.0
7.6288	577.654106301	0.0
7.639	577.812846845	0.0
7.6493	577.972762236	0.0
7.6595	578.130748219	0.0
7.6698	578.289903465	0.0
7.68	578.447138474	1.0
7.6902	578.604001158	0.0
7.7005	578.762024793	0.0
7.7107	578.918141843	1.0
7.721	579.075414324	0.0
7.7312	579.230789285	0.0
7.7414	579.385796325	1.0
7.7517	579.541950581	0.0
7.7619	579.696220808	0.0
7.7722	579.851632798	1.0
7.7824	580.005169713	1.0
7.7926	580.158343061	0.0
7.8029	580.312650054	2.0
7.8131	580.465095304	0.0
7.8234	580.618668811	0.0
7.8336	580.770389425	0.0
7.8438	580.921750773	2.0
7.8541	581.074232354	1.0
7.8643	581.224874218	1.0
7.8746	581.37663099	1.0
7.8848	581.526556789	1.0
7.895	581.676127572	1.0
7.9053	581.826805337	0.0
7.9155	581.975665147	0.0
7.9258	582.125626676	1.0
7.936	582.273778893	1.0
7.9462	582.421580293	1.0
7.9565	582.570475579	1.0
7.9667	582.717574417	0.0
7.977	582.865761941	0.0
7.9872	583.012161556	0.0
7.9974	583.158214504	1.0
8.0077	583.305348399	1.0
8.0179	583.450707096	0.0
8.0282	583.597141601	0.0
8.0384	583.741809347	2.0
8.0486	583.886134527	0.0
8.0589	584.031527866	0.0
8.0691	584.175167008	0.0
8.0794	584.319869232	2.0
8.0896	584.462825596	1.0
8.0998	584.605443448	0.0
8.1101	584.749116822	0.0
8.1203	584.891056751	3.0
8.1306	585.034047185	0.0
