TL-DOS Lehrstuhlversuch
detector=R1407201
job_number=2015-11-16-002
irradiation_dose [mSv]=0.07

[BEGIN DATA]
time [sec] 	 temperature [K] 	 photoncount 
0.0	197.142184443	0.0
0.0102	198.337571099	0.0
0.0205	199.540726313	0.0
0.0307	200.728300631	1.0
0.041	201.923592737	0.0
0.0512	203.103405776	2.0
0.0614	204.279376023	3.0
0.0717	205.462988644	1.0
0.0819	206.631273448	1.0
0.0922	207.80715068	1.0
0.1024	208.967800269	0.0
0.1126	210.124669483	3.0
0.1229	211.289056938	1.0
0.1331	212.438365543	0.0
0.1434	213.595143254	0.0
0.1536	214.73694066	2.0
0.1638	215.875019096	1.0
0.1741	217.020493656	4.0
0.1843	218.151134287	1.0
0.1946	219.289122706	0.0
0.2048	220.412374142	0.0
0.215	221.531967014	2.0
0.2253	222.658835876	0.0
0.2355	223.771111754	1.0
0.2458	224.890616071	1.0
0.256	225.995622774	0.0
0.2662	227.09703034	1.0
0.2765	228.205595713	0.0
0.2867	229.299805132	1.0
0.297	230.401125581	0.0
0.3072	231.488183898	0.0
0.3174	232.571701536	0.0
0.3277	233.662260719	0.0
0.3379	234.73869713	0.0
0.3482	235.822129067	1.0
0.3584	236.891530529	0.0
0.3686	237.957448822	2.0
0.3789	239.030294287	0.0
0.3891	240.089246372	0.0
0.3994	241.155080356	0.0
0.4096	242.207111759	0.0
0.4198	243.255716571	0.0
0.4301	244.311136037	0.0
0.4403	245.35288779	0.0
0.4506	246.401409662	0.0
0.4608	247.436353145	0.0
0.471	248.467925693	0.0
0.4813	249.506202207	0.0
0.4915	250.53103301	0.0
0.5018	251.562523966	0.0
0.512	252.580657084	0.0
0.5222	253.595474021	0.0
0.5325	254.616886032	0.0
0.5427	255.625070728	0.0
0.553	256.639807397	1.0
0.5632	257.641403197	0.0
0.5734	258.639736681	0.0
0.5837	259.644558116	1.0
0.5939	260.636367084	0.0
0.6042	261.634621603	0.0
0.6144	262.619948698	1.0
0.6246	263.602066464	0.0
0.6349	264.5905668	0.0
0.6451	265.566266029	0.0
0.6554	266.548306114	1.0
0.6656	267.517628751	0.0
0.6758	268.48379419	0.0
0.6861	269.456238527	0.0
0.6963	270.416089682	0.0
0.7066	271.3821787	0.0
0.7168	272.335756839	0.0
0.727	273.286229059	0.0
0.7373	274.242878191	0.0
0.7475	275.18713869	0.0
0.7578	276.137535732	0.0
0.768	277.075625105	1.0
0.7782	278.010659009	0.0
0.7885	278.951769495	0.0
0.7987	279.880692572	0.0
0.809	280.815652519	0.0
0.8192	281.738504708	0.0
0.8294	282.658351057	0.0
0.8397	283.584175286	0.0
0.8499	284.498010066	0.0
0.8602	285.417783659	0.0
0.8704	286.325646157	0.0
0.8806	287.230551639	0.0
0.8909	288.141337905	0.0
0.9011	289.040329462	0.0
0.9114	289.94516337	0.0
0.9216	290.838279652	0.0
0.9318	291.728486949	0.0
0.9421	292.624479508	0.0
0.9523	293.508868939	0.0
0.9626	294.399005823	0.0
0.9728	295.27761541	0.0
0.983	296.15336326	2.0
0.9933	297.034802405	0.0
1.0035	297.904826887	1.0
1.0138	298.780505469	1.0
1.024	299.644843989	0.0
1.0342	300.506367254	0.0
1.0445	301.373489372	1.0
1.0547	302.229382234	1.0
1.065	303.090837356	0.0
1.0752	303.941136611	0.0
1.0854	304.788666339	2.0
1.0957	305.641703978	1.0
1.1059	306.483694755	1.0
1.1162	307.331157447	0.0
1.1264	308.167645473	1.0
1.1366	309.001408958	0.0
1.1469	309.84059089	0.0
1.1571	310.668905391	0.0
1.1674	311.502602929	0.0
1.1776	312.325504059	0.0
1.1878	313.145724902	0.0
1.1981	313.971276182	0.0
1.2083	314.786136549	0.0
1.2186	315.606292516	1.0
1.2288	316.41582744	0.0
1.239	317.222725612	0.0
1.2493	318.034867639	0.0
1.2595	318.836492404	0.0
1.2698	319.643326753	1.0
1.28	320.439712575	2.0
1.2902	321.233504473	0.0
1.3005	322.032455052	1.0
1.3107	322.821059197	1.0
1.321	323.61478831	0.0
1.3312	324.398238607	1.0
1.3414	325.179137114	0.0
1.3517	325.96511051	1.0
1.3619	326.740905528	0.0
1.3722	327.521742268	0.0
1.3824	328.292467151	1.0
1.3926	329.06068169	0.0
1.4029	329.833888689	0.0
1.4131	330.597082634	1.0
1.4234	331.365236411	0.0
1.4336	332.123442575	1.0
1.4438	332.879179171	0.0
1.4541	333.639827134	1.0
1.4643	334.390624684	0.0
1.4746	335.146301504	0.0
1.4848	335.892192287	1.0
1.495	336.635653616	0.0
1.5053	337.383946537	0.0
1.5155	338.122549044	3.0
1.5258	338.865951567	0.0
1.536	339.599727007	0.0
1.5462	340.331112452	2.0
1.5565	341.067251012	1.0
1.5667	341.793856557	1.0
1.577	342.525184152	2.0
1.5872	343.247041035	2.0
1.5974	343.966546743	0.0
1.6077	344.690728362	2.0
1.6179	345.405531809	2.0
1.6282	346.124980608	1.0
1.6384	346.835112523	1.0
1.6486	347.542931455	1.0
1.6589	348.255350348	5.0
1.6691	348.958543395	2.0
1.6794	349.666306341	0.0
1.6896	350.364903737	0.0
1.6998	351.061225717	1.0
1.7101	351.762072943	5.0
1.7203	352.453844176	2.0
1.7306	353.150111081	1.0
1.7408	353.837361309	1.0
1.751	354.522373081	4.0
1.7613	355.211836595	1.0
1.7715	355.892371537	2.0
1.7818	356.577329127	1.0
1.792	357.253416497	2.0
1.8022	357.92730177	2.0
1.8125	358.605566476	3.0
1.8227	359.275047635	1.0
1.833	359.948879606	3.0
1.8432	360.613985434	0.0
1.8534	361.276924932	1.0
1.8637	361.944172731	1.0
1.8739	362.602779651	4.0
1.8842	363.265666714	6.0
1.8944	363.91996937	4.0
1.9046	364.572140885	6.0
1.9149	365.22855072	4.0
1.9251	365.876460029	4.0
1.9354	366.52857996	3.0
1.9456	367.172254919	4.0
1.9558	367.813833351	5.0
1.9661	368.459581263	3.0
1.9763	369.09696672	4.0
1.9866	369.738494406	3.0
1.9968	370.371714291	7.0
2.007	371.002871703	5.0
2.0173	371.638130869	3.0
2.0275	372.265163411	3.0
2.0378	372.896270901	1.0
2.048	373.519205531	6.0
2.0582	374.140111188	3.0
2.0685	374.765051976	7.0
2.0787	375.381899763	2.0
2.089	376.002756309	2.0
2.0992	376.615572745	4.0
2.1094	377.226393165	5.0
2.1197	377.841183174	6.0
2.1299	378.448011635	8.0
2.1402	379.058783741	6.0
2.1504	379.661646332	6.0
2.1606	380.262545327	9.0
2.1709	380.867349433	13.0
2.1811	381.464321309	10.0
2.1914	382.065172776	15.0
2.2016	382.658243198	6.0
2.2118	383.24938192	3.0
2.2221	383.844362323	6.0
2.2323	384.431637713	12.0
2.2426	385.022729678	5.0
2.2528	385.606166985	3.0
2.263	386.187703967	5.0
2.2733	386.773020231	8.0
2.2835	387.350756633	6.0
2.2938	387.932247617	14.0
2.304	388.506208277	5.0
2.3142	389.078299479	9.0
2.3245	389.654108577	12.0
2.3347	390.22246093	14.0
2.345	390.794506881	11.0
2.3552	391.359144821	9.0
2.3654	391.921943668	15.0
2.3757	392.488400022	10.0
2.3859	393.04752075	19.0
2.3962	393.610275082	12.0
2.4064	394.165741729	12.0
2.4166	394.719399155	11.0
2.4269	395.27665468	11.0
2.4371	395.82669373	7.0
2.4474	396.380307364	10.0
2.4576	396.926751686	8.0
2.4678	397.471416173	12.0
2.4781	398.019620316	10.0
2.4883	398.5607252	11.0
2.4986	399.105346606	9.0
2.5088	399.64291515	12.0
2.519	400.178732768	20.0
2.5293	400.718032549	18.0
2.5395	401.250348382	21.0
2.5498	401.78612362	16.0
2.56	402.314960553	10.0
2.5702	402.842075001	10.0
2.5805	403.372615051	12.0
2.5907	403.896284592	21.0
2.601	404.423357348	26.0
2.6112	404.943604496	12.0
2.6214	405.462157137	18.0
2.6317	405.984079739	17.0
2.6419	406.499243428	14.0
2.6522	407.017755054	12.0
2.6624	407.52955194	15.0
2.6726	408.039681842	16.0
2.6829	408.553126967	16.0
2.6931	409.059922962	15.0
2.7034	409.570012515	9.0
2.7136	410.073496394	13.0
2.7238	410.575340365	17.0
2.7341	411.080445711	12.0
2.7443	411.579009928	11.0
2.7546	412.080814206	9.0
2.7648	412.576120103	14.0
2.775	413.069812731	12.0
2.7853	413.566713759	4.0
2.7955	414.057179905	18.0
2.8058	414.550833483	7.0
2.816	415.038094233	10.0
2.8262	415.523767917	12.0
2.8365	416.012597888	10.0
2.8467	416.495097498	14.0
2.857	416.980732767	5.0
2.8672	417.460079045	11.0
2.8774	417.937864036	7.0
2.8877	418.418754047	11.0
2.8979	418.893416518	2.0
2.9082	419.371163718	10.0
2.9184	419.842724078	8.0
2.9286	420.312748509	8.0
2.9389	420.785827527	8.0
2.9491	421.252780158	9.0
2.9594	421.722767412	8.0
2.9696	422.186668318	7.0
2.9798	422.649058243	14.0
2.9901	423.11445314	8.0
3.0003	423.573821159	11.0
3.0106	424.036174512	7.0
3.0208	424.492540375	10.0
3.031	424.9474198	5.0
3.0413	425.405255387	6.0
3.0515	425.85716199	6.0
3.0618	426.312005436	15.0
3.072	426.760958646	6.0
3.0822	427.208449562	10.0
3.0925	427.658848624	9.0
3.1027	428.103415006	16.0
3.113	428.550870527	11.0
3.1232	428.992531486	6.0
3.1334	429.432753903	15.0
3.1437	429.87583723	12.0
3.1539	430.313182615	7.0
3.1642	430.753370212	9.0
3.1744	431.187857368	10.0
3.1846	431.620929346	13.0
3.1949	432.056815766	9.0
3.2051	432.487057443	13.0
3.2154	432.920095168	10.0
3.2256	433.347525042	13.0
3.2358	433.773562725	11.0
3.2461	434.202369135	12.0
3.2563	434.625622489	7.0
3.2666	435.051626475	9.0
3.2768	435.472113697	9.0
3.287	435.891231342	12.0
3.2973	436.313072741	9.0
3.3075	436.729451282	19.0
3.3178	437.148535776	5.0
3.328	437.562193114	11.0
3.3382	437.974503121	9.0
3.3485	438.389492641	13.0
3.3587	438.799108034	16.0
3.369	439.211385429	14.0
3.3792	439.61832382	16.0
3.3894	440.023936764	7.0
3.3997	440.432185698	15.0
3.4099	440.835147797	14.0
3.4202	441.240728658	14.0
3.4304	441.641057236	9.0
3.4406	442.040081896	16.0
3.4509	442.44169973	14.0
3.4611	442.838116602	15.0
3.4714	443.2371097	18.0
3.4816	443.630935827	11.0
3.4918	444.023479215	18.0
3.5021	444.418573656	15.0
3.5123	444.808551614	10.0
3.5226	445.201063953	10.0
3.5328	445.588493246	13.0
3.543	445.974660636	13.0
3.5533	446.363337644	15.0
3.5635	446.746981273	10.0
3.5738	447.133118119	18.0
3.584	447.514254481	13.0
3.5942	447.894149437	9.0
3.6045	448.276513247	16.0
3.6147	448.653925435	18.0
3.625	449.033790343	12.0
3.6352	449.408735989	12.0
3.6454	449.782460392	13.0
3.6557	450.158613549	11.0
3.6659	450.529895512	15.0
3.6762	450.903590356	16.0
3.6864	451.27244584	8.0
3.6966	451.640099918	10.0
3.7069	452.0101433	18.0
3.7171	452.37539461	13.0
3.7274	452.743019608	12.0
3.7376	453.105883852	16.0
3.7478	453.467566204	13.0
3.7581	453.83159905	16.0
3.7683	454.190917661	12.0
3.7786	454.552571406	13.0
3.7888	454.909541724	10.0
3.799	455.265349347	9.0
3.8093	455.623469286	8.0
3.8195	455.976951561	9.0
3.8298	456.332731042	7.0
3.84	456.683903167	14.0
3.8502	457.033931483	12.0
3.8605	457.386234557	13.0
3.8707	457.733975296	11.0
3.881	458.083975926	9.0
3.8912	458.429444039	14.0
3.9014	458.77378692	8.0
3.9117	459.12036761	13.0
3.9219	459.462460071	7.0
3.9322	459.806775716	9.0
3.9424	460.146632464	13.0
3.9526	460.485382258	16.0
3.9629	460.826333512	10.0
3.9731	461.162869439	8.0
3.9834	461.501592439	8.0
3.9936	461.835928966	5.0
4.0038	462.16917652	15.0
4.0141	462.504589776	11.0
4.0243	462.835659422	12.0
4.0346	463.168880617	8.0
4.0448	463.497786588	14.0
4.055	463.825621273	7.0
4.0653	464.155586484	12.0
4.0755	464.481278636	7.0
4.0858	464.809087391	15.0
4.096	465.132651012	10.0
4.1062	465.455160749	11.0
4.1165	465.779766406	7.0
4.1267	466.10016841	9.0
4.137	466.422652638	7.0
4.1472	466.740960685	6.0
4.1574	467.058231965	10.0
4.1677	467.377565122	7.0
4.1779	467.692762905	9.0
4.1882	468.01000909	11.0
4.1984	468.323146928	10.0
4.2086	468.635264839	11.0
4.2189	468.949411136	7.0
4.2291	469.259489229	14.0
4.2394	469.571582453	11.0
4.2496	469.87963406	9.0
4.2598	470.186682307	11.0
4.2701	470.495725993	11.0
4.2803	470.800767554	6.0
4.2906	471.107791514	5.0
4.3008	471.410839505	3.0
4.311	471.712900433	3.0
4.3213	472.016924389	12.0
4.3315	472.317011226	6.0
4.3418	472.619048261	12.0
4.352	472.917173909	13.0
4.3622	473.214328526	5.0
4.3725	473.513414286	20.0
4.3827	473.808626876	8.0
4.393	474.105757989	11.0
4.4032	474.399041246	10.0
4.4134	474.691369244	7.0
4.4237	474.985597018	7.0
4.4339	475.276014534	15.0
4.4442	475.56831941	8.0
4.4544	475.85683893	11.0
4.4646	476.144418707	3.0
4.4749	476.433867402	6.0
4.4851	476.719567729	9.0
4.4954	477.007124759	10.0
4.5056	477.290957918	8.0
4.5158	477.573866599	9.0
4.5261	477.858613841	7.0
4.5363	478.139673599	9.0
4.5466	478.422559902	11.0
4.5568	478.70178282	11.0
4.567	478.980096275	3.0
4.5773	479.260218429	9.0
4.5875	479.536712993	7.0
4.5978	479.815004435	11.0
4.608	480.089691995	7.0
4.6182	480.363484865	9.0
4.6285	480.639057055	8.0
4.6387	480.911060577	14.0
4.649	481.184831791	11.0
4.6592	481.45505766	10.0
4.6694	481.724403371	9.0
4.6797	481.995499501	9.0
4.6899	482.263084928	14.0
4.7002	482.532409335	10.0
4.7104	482.798245982	6.0
4.7206	483.063216769	4.0
4.7309	483.329909542	8.0
4.7411	483.593148637	11.0
4.7514	483.858098465	6.0
4.7616	484.119617185	16.0
4.7718	484.380284108	12.0
4.7821	484.642645048	9.0
4.7923	484.901608407	17.0
4.8026	485.162254712	12.0
4.8128	485.419525639	7.0
4.823	485.675958605	12.0
4.8333	485.934058073	5.0
4.8435	486.188815145	11.0
4.8538	486.445227828	6.0
4.864	486.698319959	12.0
4.8742	486.950587739	10.0
4.8845	487.204494953	6.0
4.8947	487.45511406	10.0
4.905	487.707361887	9.0
4.9152	487.956343097	7.0
4.9254	488.204513346	7.0
4.9357	488.454296399	6.0
4.9459	488.700844754	13.0
4.9562	488.948995374	10.0
4.9664	489.193932435	6.0
4.9766	489.438071708	9.0
4.9869	489.683797588	6.0
4.9971	489.926341312	7.0
5.0074	490.170461274	2.0
5.0176	490.411419875	3.0
5.0278	490.651593646	2.0
5.0381	490.893328254	7.0
5.0483	491.131932391	8.0
5.0586	491.372087165	8.0
5.0688	491.609131928	10.0
5.079	491.845404608	10.0
5.0893	492.083212772	9.0
5.0995	492.317941314	5.0
5.1098	492.554195305	8.0
5.12	492.787389801	16.0
5.1302	493.019824754	11.0
5.1405	493.253770251	8.0
5.1507	493.484686148	8.0
5.161	493.717102716	9.0
5.1712	493.946509483	18.0
5.1814	494.175169045	8.0
5.1917	494.405314616	8.0
5.2019	494.632479795	16.0
5.2122	494.861121271	9.0
5.2224	495.086801834	9.0
5.2326	495.311747328	9.0
5.2429	495.538154693	5.0
5.2531	495.761630077	5.0
5.2634	495.986557779	11.0
5.2736	496.20857266	5.0
5.2838	496.429864413	9.0
5.2941	496.652594292	16.0
5.3043	496.872439813	9.0
5.3146	497.093714062	6.0
5.3248	497.312122804	8.0
5.335	497.529820162	10.0
5.3453	497.748932288	9.0
5.3555	497.965206905	10.0
5.3658	498.182887044	9.0
5.376	498.397748219	7.0
5.3862	498.611909566	6.0
5.3965	498.8274627	14.0
5.4067	499.040224415	5.0
5.417	499.254368822	9.0
5.4272	499.465740054	9.0
5.4374	499.676422823	9.0
5.4477	499.888474774	4.0
5.4579	500.097780647	9.0
5.4682	500.308446752	13.0
5.4784	500.516384726	7.0
5.4886	500.723645421	8.0
5.4989	500.932253057	4.0
5.5091	501.138159219	9.0
5.5194	501.34540352	5.0
5.5296	501.549964002	3.0
5.5398	501.753858206	9.0
5.5501	501.959077473	14.0
5.5603	502.161639146	4.0
5.5706	502.365517222	10.0
5.5808	502.566755072	7.0
5.591	502.767337466	7.0
5.6013	502.969223401	4.0
5.6115	503.168494907	7.0
5.6218	503.369061436	4.0
5.632	503.567030622	7.0
5.6422	503.764354999	3.0
5.6525	503.962961745	11.0
5.6627	504.158996527	8.0
5.673	504.356305296	5.0
5.6832	504.551058912	13.0
5.6934	504.745178191	6.0
5.7037	504.94055901	5.0
5.7139	505.133409641	6.0
5.7242	505.327513567	5.0
5.7344	505.519103841	6.0
5.7446	505.710070082	10.0
5.7549	505.902277372	6.0
5.7651	506.091995572	9.0
5.7754	506.282946709	8.0
5.7856	506.471425023	4.0
5.7958	506.659289442	6.0
5.8061	506.848374749	4.0
5.8163	507.035011397	7.0
5.8266	507.222860956	2.0
5.8368	507.408277858	7.0
5.847	507.593090834	6.0
5.8573	507.77910487	3.0
5.8675	507.962710019	6.0
5.8778	508.147508378	7.0
5.888	508.329913592	4.0
5.8982	508.511724691	5.0
5.9085	508.694717341	5.0
5.9187	508.875340231	2.0
5.929	509.057136949	3.0
5.9392	509.236579395	3.0
5.9494	509.415437376	4.0
5.9597	509.595457715	6.0
5.9699	509.773146786	5.0
5.9802	509.951990619	6.0
5.9904	510.12851842	3.0
6.0006	510.304471249	1.0
6.0109	510.481567556	4.0
6.0211	510.656370462	2.0
6.0314	510.832309373	1.0
6.0416	511.005969871	2.0
6.0518	511.179064735	5.0
6.0621	511.353284505	5.0
6.0723	511.525248125	3.0
6.0826	511.698329298	1.0
6.0928	511.869169066	3.0
6.103	512.039452387	3.0
6.1133	512.210842343	3.0
6.1235	512.380012794	2.0
6.1338	512.550282648	1.0
6.144	512.718347501	3.0
6.1542	512.885864947	1.0
6.1645	513.054471053	2.0
6.1747	513.220893705	1.0
6.185	513.388397901	4.0
6.1952	513.553732914	3.0
6.2054	513.71852941	6.0
6.2157	513.884396883	5.0
6.2259	514.048116367	1.0
6.2362	514.212899829	2.0
6.2464	514.37554934	3.0
6.2566	514.537669082	2.0
6.2669	514.700842405	1.0
6.2771	514.861902629	3.0
6.2874	515.024009548	4.0
6.2976	515.184017178	2.0
6.3078	515.343503644	0.0
6.3181	515.504026578	2.0
6.3283	515.662470735	2.0
6.3386	515.821944587	1.0
6.3488	515.979353247	2.0
6.359	516.136249209	1.0
6.3693	516.294164803	2.0
6.3795	516.450035386	2.0
6.3898	516.606918937	1.0
6.4	516.761770843	1.0
6.4102	516.916118377	3.0
6.4205	517.071468982	1.0
6.4307	517.224807792	0.0
6.441	517.379143118	2.0
6.4512	517.531479797	1.0
6.4614	517.683320297	0.0
6.4717	517.836147576	1.0
6.4819	517.986995737	0.0
6.4922	518.138824227	1.0
6.5024	518.288686534	2.0
6.5126	518.438060722	1.0
6.5229	518.58840566	0.0
6.5331	518.736803626	0.0
6.5434	518.886165999	1.0
6.5536	519.033594125	3.0
6.5638	519.180542059	0.0
6.5741	519.328444977	0.0
6.5843	519.474432547	0.0
6.5946	519.621368859	1.0
6.6048	519.766402341	4.0
6.615	519.910963432	1.0
6.6253	520.056463994	1.0
6.6355	520.200080319	0.0
6.6458	520.344629976	0.0
6.656	520.48730771	0.0
6.6662	520.629520727	0.0
6.6765	520.772657954	3.0
6.6867	520.91394155	1.0
6.697	521.056143318	0.0
6.7072	521.196503569	1.0
6.7174	521.336406649	1.0
6.7277	521.47721893	0.0
6.7379	521.616207687	1.0
6.7482	521.756099702	3.0
6.7584	521.894180111	0.0
6.7686	522.031810776	2.0
6.7789	522.170335872	2.0
6.7891	522.307067065	1.0
6.7994	522.444686844	0.0
6.8096	522.580524443	2.0
6.8198	522.715919602	0.0
6.8301	522.852194665	0.0
6.8403	522.986704962	1.0
6.8506	523.122089413	0.0
6.8608	523.255720631	0.0
6.871	523.388916596	1.0
6.8813	523.522978172	1.0
6.8915	523.655303647	2.0
6.9018	523.788489077	1.0
6.912	523.919949752	2.0
6.9222	524.050982243	0.0
6.9325	524.182866286	0.0
6.9427	524.313042427	1.0
6.953	524.444064555	0.0
6.9632	524.573389942	0.0
6.9734	524.7022941	0.0
6.9837	524.832035979	1.0
6.9939	524.960097697	0.0
7.0042	525.08899166	0.0
7.0144	525.216216443	1.0
7.0246	525.343026839	0.0
7.0349	525.470661348	2.0
7.0451	525.596642987	0.0
7.0554	525.723443353	0.0
7.0656	525.848601651	2.0
7.0758	525.973352293	1.0
7.0861	526.098913663	0.0
7.0963	526.222849009	1.0
7.1066	526.347589784	1.0
7.1168	526.470715162	0.0
7.127	526.593439506	0.0
7.1373	526.716961409	0.0
7.1475	526.8388837	0.0
7.1578	526.961598337	1.0
7.168	527.082723817	0.0
7.1782	527.203454776	2.0
7.1885	527.324970339	2.0
7.1987	527.444912272	2.0
7.209	527.565633682	1.0
7.2192	527.684791746	1.0
7.2294	527.803561698	0.0
7.2397	527.92310351	0.0
7.2499	528.041097252	2.0
7.2602	528.15985781	1.0
7.2704	528.277080415	2.0
7.2806	528.393921212	2.0
7.2909	528.511521332	0.0
7.3011	528.627598527	3.0
7.3114	528.744430083	3.0
7.3216	528.859748666	3.0
7.3318	528.974691643	1.0
7.3421	529.09038161	0.0
7.3523	529.204573388	0.0
7.3626	529.319507274	0.0
7.3728	529.432952762	0.0
7.383	529.546028745	2.0
7.3933	529.659839584	0.0
7.4035	529.77217657	1.0
7.4138	529.885243609	0.0
7.424	529.996846427	2.0
7.4342	530.108085741	2.0
7.4445	530.220047975	1.0
7.4547	530.330560295	0.0
7.465	530.441790811	1.0
7.4752	530.551580888	1.0
7.4854	530.661013366	0.0
7.4957	530.771157021	1.0
7.5059	530.879874313	0.0
7.5162	530.989298135	1.0
7.5264	531.097304916	1.0
7.5366	531.204959905	1.0
7.5469	531.313314521	0.0
7.5571	531.420265942	1.0
7.5674	531.527912416	0.0
7.5776	531.634164866	0.0
7.5878	531.740071238	0.0
7.5981	531.846665873	0.0
7.6083	531.951880105	1.0
7.6186	532.057778101	0.0
7.6288	532.162304714	0.0
7.639	532.266490872	0.0
7.6493	532.371354114	0.0
7.6595	532.474859373	0.0
7.6698	532.57903729	0.0
7.68	532.681866101	0.0
7.6902	532.784359985	0.0
7.7005	532.887519956	0.0
7.7107	532.989344001	0.0
7.721	533.091829779	0.0
7.7312	533.192988363	1.0
7.7414	533.293817462	1.0
7.7517	533.395301826	1.0
7.7619	533.495471966	1.0
7.7722	533.596293089	0.0
7.7824	533.695808576	1.0
7.7926	533.794999929	2.0
7.8029	533.894835905	1.0
7.8131	533.993379003	1.0
7.8234	534.09256251	0.0
7.8336	534.190461588	0.0
7.8438	534.288041798	2.0
7.8541	534.386256159	1.0
7.8643	534.483198642	1.0
7.8746	534.580771133	1.0
7.8848	534.677080058	0.0
7.895	534.773075293	0.0
7.9053	534.86969438	1.0
7.9155	534.965062247	0.0
7.9258	535.061049889	0.0
7.936	535.155794488	0.0
7.9462	535.250230493	2.0
7.9565	535.345280216	1.0
7.9667	535.439099044	0.0
7.977	535.533527579	0.0
7.9872	535.626733262	0.0
7.9974	535.719635363	1.0
8.0077	535.813141215	1.0
8.0179	535.905436163	1.0
8.0282	535.998330916	0.0
8.0384	536.090022679	0.0
8.0486	536.181415791	0.0
8.0589	536.273402847	1.0
8.0691	536.364198668	0.0
8.0794	536.455584551	1.0
8.0896	536.545786985	0.0
8.0998	536.635695618	1.0
8.1101	536.726188548	0.0
8.1203	536.815509592	0.0
