TL-DOS Lehrstuhlversuch
detector=R1406904
job_number=2015-10-30-001
irradiation_dose [mSv]=0.4

[BEGIN DATA]
time [sec] 	 temperature [K] 	 photoncount 
0.0	260.150112136	0.0
0.0102	260.851004507	0.0
0.0205	261.557435079	0.0
0.0307	262.255689237	0.0
0.041	262.959460749	2.0
0.0512	263.655086623	3.0
0.0614	264.349408455	2.0
0.0717	265.049216569	2.0
0.0819	265.740924918	4.0
0.0922	266.4380989	0.0
0.1024	267.127203606	3.0
0.1126	267.815016493	0.0
0.1229	268.508264232	2.0
0.1331	269.193488138	3.0
0.1434	269.884126438	2.0
0.1536	270.566771107	1.0
0.1638	271.248136069	3.0
0.1741	271.934884933	1.0
0.1843	272.613685184	2.0
0.1946	273.297849071	1.0
0.2048	273.974094265	0.0
0.215	274.649071747	1.0
0.2253	275.32938266	4.0
0.2355	276.001819474	0.0
0.2458	276.679569644	1.0
0.256	277.349475353	1.0
0.2662	278.018125236	0.0
0.2765	278.69205855	1.0
0.2867	279.358191582	0.0
0.297	280.02958816	0.0
0.3072	280.693213815	0.0
0.3174	281.355595416	0.0
0.3277	282.02321092	0.0
0.3379	282.683099264	0.0
0.3482	283.348201811	0.0
0.3584	284.005606285	1.0
0.3686	284.661778367	0.0
0.3789	285.323135286	0.0
0.3891	285.976837484	0.0
0.3994	286.635705004	0.0
0.4096	287.286946617	0.0
0.4198	287.936967391	1.0
0.4301	288.592124397	0.0
0.4403	289.239698442	0.0
0.4506	289.892389385	0.0
0.4608	290.537525911	0.0
0.471	291.181453043	0.0
0.4813	291.830468256	0.0
0.4915	292.471971596	0.0
0.5018	293.118543866	0.0
0.512	293.757632537	1.0
0.5222	294.395523151	3.0
0.5325	295.038454149	0.0
0.5427	295.673943694	0.0
0.553	296.314454649	0.0
0.5632	296.947552161	0.0
0.5734	297.579462848	0.0
0.5837	298.216366668	0.0
0.5939	298.845898793	0.0
0.6042	299.480405257	0.0
0.6144	300.107567774	0.0
0.6246	300.733554593	0.0
0.6349	301.364487735	0.0
0.6451	301.98811829	0.0
0.6554	302.616676551	0.0
0.6656	303.237959712	0.0
0.6758	303.858078195	0.0
0.6861	304.483096633	1.0
0.6963	305.100880942	0.0
0.7066	305.723546761	0.0
0.7168	306.339005682	0.0
0.727	306.953310843	0.0
0.7373	307.572470024	0.0
0.7475	308.184462892	0.0
0.7578	308.801291509	0.0
0.768	309.410980789	0.0
0.7782	310.019527125	0.0
0.7885	310.632881977	0.0
0.7987	311.239137697	0.0
0.809	311.850183833	0.0
0.8192	312.454157559	0.0
0.8294	313.056999057	1.0
0.8397	313.664603992	0.0
0.8499	314.265176347	1.0
0.8602	314.87049421	0.0
0.8704	315.468805964	0.0
0.8806	316.065996103	0.0
0.8909	316.667905025	0.0
0.9011	317.262847293	0.0
0.9114	317.862490583	0.0
0.9216	318.455193443	0.0
0.9318	319.046785202	0.0
0.9421	319.643051508	0.0
0.9523	320.23241647	0.0
0.9626	320.826438383	0.0
0.9728	321.413584929	0.0
0.983	321.999630791	0.0
0.9933	322.590307378	0.0
1.0035	323.174147317	0.0
1.0138	323.762600551	0.0
1.024	324.344242872	0.0
1.0342	324.924794826	0.0
1.0445	325.509934095	0.0
1.0547	326.088300807	0.0
1.065	326.671237566	0.0
1.0752	327.24742726	0.0
1.0854	327.822536811	0.0
1.0957	328.402190671	0.0
1.1059	328.975135464	0.0
1.1162	329.552607462	0.0
1.1264	330.123395646	0.0
1.1366	330.693113812	0.0
1.1469	331.267333688	1.0
1.1571	331.83490739	0.0
1.1674	332.406965857	0.0
1.1776	332.972403167	1.0
1.1878	333.536780491	0.0
1.1981	334.105617322	0.0
1.2083	334.667870285	1.0
1.2186	335.23456597	0.0
1.2288	335.794702569	1.0
1.239	336.353789118	1.0
1.2493	336.917293368	0.0
1.2595	337.474275471	0.0
1.2698	338.035658648	0.0
1.28	338.590544227	0.0
1.2902	339.1443896	0.0
1.3005	339.70261126	0.0
1.3107	340.254371915	0.0
1.321	340.810492386	0.0
1.3312	341.360176171	0.0
1.3414	341.908829501	1.0
1.3517	342.461818093	0.0
1.3619	343.008406249	1.0
1.3722	343.559313349	0.0
1.3824	344.103844104	1.0
1.3926	344.647354065	0.0
1.4029	345.195158646	1.0
1.4131	345.736622793	0.0
1.4234	346.282365395	1.0
1.4336	346.821791428	1.0
1.4438	347.360206235	1.0
1.4541	347.902875404	1.0
1.4643	348.439263576	0.0
1.4746	348.979890095	1.0
1.4848	349.51425926	0.0
1.495	350.047626679	2.0
1.5053	350.585208577	1.0
1.5155	351.11656836	1.0
1.5258	351.652126757	0.0
1.536	352.18148646	1.0
1.5462	352.709853808	0.0
1.5565	353.242396125	3.0
1.5667	353.768774657	1.0
1.577	354.299312444	0.0
1.5872	354.823709646	1.0
1.5974	355.347123796	0.0
1.6077	355.874673777	1.0
1.6179	356.396117755	0.0
1.6282	356.921681997	1.0
1.6384	357.441163219	1.0
1.6486	357.959670605	0.0
1.6589	358.482275051	4.0
1.6691	358.998830734	2.0
1.6794	359.519468056	2.0
1.6896	360.034079383	0.0
1.6998	360.547726004	3.0
1.7101	361.065431276	2.0
1.7203	361.57714449	2.0
1.7306	362.09290108	1.0
1.7408	362.602688165	0.0
1.751	363.111519588	0.0
1.7613	363.624371614	1.0
1.7715	364.131287755	1.0
1.7818	364.642209366	4.0
1.792	365.147217436	5.0
1.8022	365.6512788	4.0
1.8125	366.159323077	2.0
1.8227	366.661487116	3.0
1.833	367.167619075	1.0
1.8432	367.667892928	4.0
1.8534	368.167228952	2.0
1.8637	368.670510551	5.0
1.8739	369.167967035	4.0
1.8842	369.669354242	1.0
1.8944	370.164938261	2.0
1.9046	370.659593242	7.0
1.9149	371.15815681	2.0
1.9251	371.650949871	5.0
1.9354	372.147636807	4.0
1.9456	372.638574956	5.0
1.9558	373.128592777	4.0
1.9661	373.622482544	2.0
1.9763	374.110655899	6.0
1.9866	374.602686626	6.0
1.9968	375.089022459	4.0
2.007	375.574446591	4.0
2.0173	376.06370637	4.0
2.0275	376.547303328	3.0
2.0378	377.034721496	8.0
2.048	377.516498156	9.0
2.0582	377.997371663	12.0
2.0685	378.48204486	9.0
2.0787	378.961108321	9.0
2.089	379.44395717	7.0
2.0992	379.921217399	9.0
2.1094	380.39758294	13.0
2.1197	380.877712552	11.0
2.1299	381.352285016	15.0
2.1402	381.830607382	12.0
2.1504	382.303393518	10.0
2.1606	382.775293354	16.0
2.1709	383.250921974	13.0
2.1811	383.721045542	20.0
2.1914	384.194883858	12.0
2.2016	384.663237845	20.0
2.2118	385.130713839	21.0
2.2221	385.601883662	13.0
2.2323	386.067600041	19.0
2.2426	386.536996343	20.0
2.2528	387.000959729	22.0
2.263	387.464053354	21.0
2.2733	387.930806179	25.0
2.2835	388.392156683	22.0
2.2938	388.857152614	21.0
2.304	389.316766559	27.0
2.3142	389.775518896	18.0
2.3245	390.237896131	29.0
2.3347	390.694921689	19.0
2.345	391.155558499	19.0
2.3552	391.610863777	26.0
2.3654	392.065315525	37.0
2.3757	392.523358188	31.0
2.3859	392.976099344	34.0
2.3962	393.432417899	34.0
2.4064	393.883454902	37.0
2.4166	394.333646376	31.0
2.4269	394.787395103	21.0
2.4371	395.235892021	36.0
2.4474	395.687932802	37.0
2.4576	396.134741543	33.0
2.4678	396.580712682	47.0
2.4781	397.030207725	33.0
2.4883	397.474500193	40.0
2.4986	397.922303302	37.0
2.5088	398.364923419	47.0
2.519	398.806713786	36.0
2.5293	399.251995022	46.0
2.5395	399.692122456	49.0
2.5498	400.135727619	41.0
2.56	400.574198378	50.0
2.5702	401.011847166	43.0
2.5805	401.452954098	47.0
2.5907	401.888955542	53.0
2.601	402.328402113	36.0
2.6112	402.762762413	52.0
2.6214	403.196308447	44.0
2.6317	403.633280207	59.0
2.6419	404.06519434	54.0
2.6522	404.500521304	49.0
2.6624	404.930809678	58.0
2.6726	405.36029142	71.0
2.6829	405.793166773	55.0
2.6931	406.221031912	55.0
2.7034	406.652277888	55.0
2.7136	407.07853251	62.0
2.7238	407.50398806	57.0
2.7341	407.932805408	50.0
2.7443	408.35665951	48.0
2.7546	408.783862756	49.0
2.7648	409.206121439	44.0
2.775	409.627588542	68.0
2.7853	410.052385927	49.0
2.7955	410.472266594	53.0
2.8058	410.895465008	39.0
2.816	411.313765212	47.0
2.8262	411.731281257	48.0
2.8365	412.152096364	38.0
2.8467	412.568040846	48.0
2.857	412.987271972	46.0
2.8672	413.401650806	54.0
2.8774	413.815252832	48.0
2.8877	414.232122994	48.0
2.8979	414.64416819	33.0
2.9082	415.059469219	44.0
2.9184	415.469963445	44.0
2.9286	415.879688144	49.0
2.9389	416.292650342	42.0
2.9491	416.700832806	40.0
2.9594	417.112240581	31.0
2.9696	417.518886615	28.0
2.9798	417.924770336	25.0
2.9901	418.333861205	27.0
3.0003	418.738217148	33.0
3.0106	419.145768167	30.0
3.0208	419.548602083	41.0
3.031	419.950680834	25.0
3.0413	420.355936666	34.0
3.0515	420.756501961	25.0
3.0618	421.160232379	28.0
3.072	421.559289914	30.0
3.0822	421.957599363	35.0
3.0925	422.359056111	28.0
3.1027	422.755866293	25.0
3.113	423.155811926	35.0
3.1232	423.551128483	23.0
3.1334	423.945703966	38.0
3.1437	424.343397244	32.0
3.1539	424.736487514	39.0
3.1642	425.132683843	29.0
3.1744	425.524294492	34.0
3.1846	425.915171013	39.0
3.1949	426.309136102	32.0
3.2051	426.698541334	37.0
3.2154	427.091023507	35.0
3.2256	427.478962987	53.0
3.2358	427.866175224	36.0
3.2461	428.256447073	38.0
3.2563	428.642201812	41.0
3.2666	429.031004647	35.0
3.2768	429.415307376	37.0
3.287	429.798889678	38.0
3.2973	430.18550291	35.0
3.3075	430.567641378	57.0
3.3178	430.952799368	56.0
3.328	431.333499437	49.0
3.3382	431.713485833	47.0
3.3485	432.096474746	51.0
3.3587	432.475030844	44.0
3.369	432.856578157	42.0
3.3792	433.23370934	55.0
3.3894	433.610133541	41.0
3.3997	433.989532111	53.0
3.4099	434.364539422	62.0
3.4202	434.742509906	51.0
3.4304	435.11610566	56.0
3.4406	435.489001059	47.0
3.4509	435.864842944	48.0
3.4611	436.236334736	54.0
3.4714	436.610761923	59.0
3.4816	436.98085539	58.0
3.4918	437.350255068	41.0
3.5021	437.722573611	56.0
3.5123	438.09058284	50.0
3.5226	438.461499946	64.0
3.5328	438.82812396	66.0
3.543	439.194060688	47.0
3.5533	439.562888917	56.0
3.5635	439.927448231	47.0
3.5738	440.294888162	63.0
3.584	440.658075246	52.0
3.5942	441.020581488	69.0
3.6045	441.385952124	56.0
3.6147	441.747093864	56.0
3.625	442.111089217	55.0
3.6352	442.470871591	66.0
3.6454	442.829979505	59.0
3.6557	443.191924962	55.0
3.6659	443.549681166	55.0
3.6762	443.910264232	59.0
3.6864	444.266673814	48.0
3.6966	444.622415259	68.0
3.7069	444.980967645	52.0
3.7171	445.335370051	54.0
3.7274	445.692572819	42.0
3.7376	446.045641226	64.0
3.7478	446.398047761	48.0
3.7581	446.753238886	65.0
3.7683	447.104318934	57.0
3.7786	447.458173092	46.0
3.7888	447.807931648	48.0
3.799	448.157034535	44.0
3.8093	448.508895908	55.0
3.8195	448.856684745	56.0
3.8298	449.207221684	55.0
3.84	449.553701416	54.0
3.8502	449.899531626	51.0
3.8605	450.248094463	46.0
3.8707	450.592622941	44.0
3.881	450.93987376	63.0
3.8912	451.283105406	41.0
3.9014	451.625693619	41.0
3.9117	451.970988841	58.0
3.9219	452.312287525	54.0
3.9322	452.656283029	50.0
3.9424	452.996297038	55.0
3.9526	453.335673646	46.0
3.9629	453.677731886	54.0
3.9731	454.015831054	44.0
3.9834	454.35660176	49.0
3.9936	454.693428296	39.0
4.0038	455.029623406	43.0
4.0141	455.36847501	45.0
4.0243	455.703404655	36.0
4.0346	456.040980795	52.0
4.0448	456.374649739	29.0
4.055	456.707693176	47.0
4.0653	457.043368203	39.0
4.0755	457.375158039	50.0
4.0858	457.709569559	42.0
4.096	458.040110512	55.0
4.1062	458.370031822	45.0
4.1165	458.702560053	38.0
4.1267	459.031239513	45.0
4.137	459.362516081	43.0
4.1472	459.689958367	37.0
4.1574	460.016786818	36.0
4.1677	460.346197751	47.0
4.1779	460.671795994	43.0
4.1882	460.999966999	33.0
4.1984	461.324339665	44.0
4.2086	461.648104252	38.0
4.2189	461.97442711	41.0
4.2291	462.296973022	36.0
4.2394	462.622067576	50.0
4.2496	462.943399399	40.0
4.2598	463.264128844	50.0
4.2701	463.587392577	47.0
4.2803	463.906914771	48.0
4.2906	464.228961715	53.0
4.3008	464.547281202	31.0
4.311	464.865003957	42.0
4.3213	465.185237244	46.0
4.3315	465.501764066	43.0
4.3418	465.82079197	57.0
4.352	466.13612736	46.0
4.3622	466.450871612	35.0
4.3725	466.768102861	40.0
4.3827	467.081662391	41.0
4.393	467.397699556	42.0
4.4032	467.710078824	42.0
4.4134	468.021872495	37.0
4.4237	468.336129849	42.0
4.4339	468.646749904	41.0
4.4442	468.959824368	43.0
4.4544	469.269275226	37.0
4.4646	469.578145977	44.0
4.4749	469.889457313	45.0
4.4851	470.197165451	44.0
4.4954	470.507304987	33.0
4.5056	470.813854887	52.0
4.5158	471.119830118	40.0
4.5261	471.428223056	47.0
4.5363	471.733046573	44.0
4.5466	472.040278696	46.0
4.5568	472.343954833	52.0
4.567	472.647061689	38.0
4.5773	472.952563586	41.0
4.5875	473.254529524	43.0
4.5978	473.558881489	48.0
4.608	473.859710804	41.0
4.6182	474.159976174	29.0
4.6285	474.462614134	54.0
4.6387	474.761749281	48.0
4.649	475.063248088	53.0
4.6592	475.361257268	31.0
4.6694	475.65870779	46.0
4.6797	475.95850866	36.0
4.6899	476.254839555	34.0
4.7002	476.55351195	45.0
4.7104	476.848727433	42.0
4.7206	477.143389495	43.0
4.7309	477.440379871	33.0
4.7411	477.733932802	42.0
4.7514	478.029805283	48.0
4.7616	478.322253257	25.0
4.7718	478.614152999	39.0
4.7821	478.908359229	42.0
4.7923	479.199160238	46.0
4.8026	479.492259052	30.0
4.8128	479.781965463	48.0
4.823	480.071128781	38.0
4.8333	480.362576964	38.0
4.8435	480.650651848	32.0
4.8538	480.941002998	32.0
4.864	481.227993546	43.0
4.8742	481.514446092	33.0
4.8845	481.803162084	38.0
4.8947	482.088536401	42.0
4.905	482.376165643	42.0
4.9152	482.660465789	41.0
4.9254	482.944232976	41.0
4.9357	483.23024239	43.0
4.9459	483.512941455	32.0
4.9562	483.797874307	49.0
4.9664	484.079509271	39.0
4.9766	484.360616273	41.0
4.9869	484.643944482	30.0
4.9971	484.923993375	21.0
5.0074	485.206255114	43.0
5.0176	485.485249881	37.0
5.0278	485.763721636	34.0
5.0381	486.044393774	36.0
5.0483	486.321817339	27.0
5.0586	486.601433006	43.0
5.0688	486.877812327	40.0
5.079	487.153673539	36.0
5.0893	487.431714507	36.0
5.0995	487.706537355	25.0
5.1098	487.983531755	27.0
5.12	488.257320148	39.0
5.1302	488.530595289	39.0
5.1405	488.806029753	40.0
5.1507	489.078276265	34.0
5.161	489.352673971	32.0
5.1712	489.623895726	29.0
5.1814	489.89460904	39.0
5.1917	490.167461433	24.0
5.2019	490.437155761	39.0
5.2122	490.708981116	34.0
5.2224	490.977660293	39.0
5.2326	491.245835796	39.0
5.2429	491.516130325	23.0
5.2531	491.783296394	37.0
5.2634	492.052573513	44.0
5.2736	492.318733948	28.0
5.2838	492.58439543	32.0
5.2941	492.852156074	45.0
5.3043	493.116817585	35.0
5.3146	493.383570357	51.0
5.3248	493.647235662	32.0
5.335	493.910406691	43.0
5.3453	494.175657203	44.0
5.3555	494.437837636	39.0
5.3658	494.702089725	45.0
5.376	494.96328329	39.0
5.3862	495.223987213	31.0
5.3965	495.486751125	33.0
5.4067	495.746473738	39.0
5.417	496.008248587	53.0
5.4272	496.266993584	48.0
5.4374	496.525253529	43.0
5.4477	496.785554152	36.0
5.4579	497.042841987	33.0
5.4682	497.302162818	36.0
5.4784	497.558482201	38.0
5.4886	497.814321079	40.0
5.4989	498.072181505	28.0
5.5091	498.327057386	36.0
5.5194	498.583947205	25.0
5.5296	498.837863713	41.0
5.5398	499.091304221	38.0
5.5501	499.346747325	38.0
5.5603	499.599233863	30.0
5.5706	499.85371546	35.0
5.5808	500.105251619	30.0
5.591	500.35631624	43.0
5.6013	500.609364684	38.0
5.6115	500.859484278	40.0
5.6218	501.111580228	39.0
5.632	501.360758353	42.0
5.6422	501.60946936	33.0
5.6525	501.860145593	29.0
5.6627	502.107920433	27.0
5.673	502.3576531	52.0
5.6832	502.604495296	37.0
5.6934	502.850874753	42.0
5.7037	503.099201013	31.0
5.7139	503.344653079	31.0
5.7242	503.592044619	26.0
5.7344	503.836572784	34.0
5.7446	504.080642549	33.0
5.7549	504.326640865	33.0
5.7651	504.569791932	33.0
5.7754	504.814864292	31.0
5.7856	505.057100119	34.0
5.7958	505.298881843	29.0
5.8061	505.54257404	27.0
5.8163	505.783445679	30.0
5.8266	506.026220599	35.0
5.8368	506.266185578	32.0
5.847	506.505700711	44.0
5.8573	506.747108407	24.0
5.8675	506.985721986	29.0
5.8778	507.226221005	39.0
5.888	507.463936424	22.0
5.8982	507.701206214	27.0
5.9085	507.940350825	27.0
5.9187	508.176727513	27.0
5.929	508.414971965	25.0
5.9392	508.650458913	30.0
5.9494	508.885504409	26.0
5.9597	509.122407151	35.0
5.9699	509.356567917	31.0
5.9802	509.592578939	19.0
5.9904	509.825858306	24.0
6.0006	510.05870036	28.0
6.0109	510.293382249	31.0
6.0211	510.525347867	17.0
6.0314	510.759146395	23.0
6.0416	510.990238877	23.0
6.0518	511.220898145	21.0
6.0621	511.45338	18.0
6.0723	511.683171049	22.0
6.0826	511.914777824	22.0
6.0928	512.143703921	21.0
6.103	512.372200866	15.0
6.1133	512.602503312	16.0
6.1235	512.830140177	25.0
6.1338	513.059575747	14.0
6.144	513.286355768	14.0
6.1542	513.512710661	20.0
6.1645	513.740854128	18.0
6.1747	513.966357003	19.0
6.185	514.193641721	17.0
6.1952	514.418295786	16.0
6.2054	514.642528706	11.0
6.2157	514.868533435	12.0
6.2259	515.091922326	10.0
6.2362	515.317076355	17.0
6.2464	515.539624393	14.0
6.2566	515.761755234	9.0
6.2669	515.985641274	15.0
6.2771	516.206935997	22.0
6.2874	516.429979313	5.0
6.2976	516.650441065	13.0
6.3078	516.870489534	20.0
6.3181	517.092276746	15.0
6.3283	517.311496934	6.0
6.3386	517.532449322	9.0
6.3488	517.750844349	8.0
6.359	517.968829965	11.0
6.3693	518.188538026	8.0
6.3795	518.405703127	12.0
6.3898	518.624584189	10.0
6.4	518.840931864	11.0
6.4102	519.056873967	5.0
6.4205	519.274522366	10.0
6.4307	519.489651646	7.0
6.441	519.7064808	8.0
6.4512	519.920800316	3.0
6.4614	520.134718062	6.0
6.4717	520.350326109	12.0
6.4819	520.563438652	8.0
6.4922	520.778235133	7.0
6.5024	520.990545504	1.0
6.5126	521.20245787	7.0
6.5229	521.416044692	10.0
6.5331	521.627159404	6.0
6.5434	521.839942269	4.0
6.5536	522.050262328	6.0
6.5638	522.260188115	6.0
6.5741	522.47177266	2.0
6.5843	522.680908269	1.0
6.5946	522.891696394	2.0
6.6048	523.100044801	2.0
6.615	523.308002631	2.0
6.6253	523.517603669	2.0
6.6355	523.72477873	4.0
6.6458	523.933590814	4.0
6.656	524.139986051	6.0
6.6662	524.345994373	5.0
6.6765	524.5536305	5.0
6.6867	524.75886339	5.0
6.697	524.965717958	2.0
6.7072	525.170178336	3.0
6.7174	525.374255426	3.0
6.7277	525.57994506	5.0
6.7379	525.783253988	3.0
6.7482	525.988169391	5.0
6.7584	526.190713048	1.0
6.7686	526.39287701	2.0
6.7789	526.5966384	4.0
6.7891	526.798041402	2.0
6.7994	527.001035817	3.0
6.8096	527.201680722	0.0
6.8198	527.401949491	1.0
6.8301	527.603800713	3.0
6.8403	527.803315655	2.0
6.8506	528.004407093	0.0
6.8608	528.203171045	5.0
6.871	528.401562388	3.0
6.8813	528.601521348	3.0
6.8915	528.79916593	2.0
6.9018	528.998372229	3.0
6.912	529.195272862	0.0
6.9222	529.391804378	2.0
6.9325	529.589888816	3.0
6.9427	529.785680572	1.0
6.953	529.983019405	5.0
6.9632	530.178074186	2.0
6.9734	530.372763311	3.0
6.9837	530.568990799	2.0
6.9939	530.762947099	1.0
7.0042	530.958435972	3.0
7.0144	531.151662205	0.0
7.0246	531.34452621	0.0
7.0349	531.538914157	2.0
7.0451	531.731052207	0.0
7.0554	531.924708463	1.0
7.0656	532.11612329	1.0
7.0758	532.307179284	2.0
7.0861	532.499744935	2.0
7.0963	532.69008178	3.0
7.1066	532.881922598	2.0
7.1168	533.071543	2.0
7.127	533.260807934	0.0
7.1373	533.451568371	0.0
7.1475	533.640120897	0.0
7.1578	533.830163297	0.0
7.168	534.018006096	0.0
7.1782	534.205496759	1.0
7.1885	534.394468906	0.0
7.1987	534.581253839	2.0
7.209	534.76951468	2.0
7.2192	534.955596541	2.0
7.2294	535.141329566	1.0
7.2397	535.328530187	1.0
7.2499	535.513564099	1.0
7.2602	535.700060082	2.0
7.2704	535.884397511	0.0
7.2806	536.068389376	0.0
7.2909	536.253835078	2.0
7.3011	536.437134383	1.0
7.3114	536.621882053	2.0
7.3216	536.804491405	2.0
7.3318	536.986758432	0.0
7.3421	537.170465667	1.0
7.3523	537.352046626	1.0
7.3626	537.535062373	0.0
7.3728	537.715959847	1.0
7.383	537.896518205	1.0
7.3933	538.07850327	0.0
7.4035	538.258381992	1.0
7.4138	538.439682052	2.0
7.424	538.618883696	0.0
7.4342	538.797749404	0.0
7.4445	538.978028444	0.0
7.4547	539.156220887	1.0
7.465	539.335821342	1.0
7.4752	539.513343055	2.0
7.4854	539.690531979	1.0
7.4957	539.869120987	1.0
7.5059	540.045642959	1.0
7.5162	540.223559744	1.0
7.5264	540.399417273	1.0
7.5366	540.574945134	2.0
7.5469	540.751859953	1.0
7.5571	540.926727113	3.0
7.5674	541.102976011	0.0
7.5776	541.277184958	0.0
7.5878	541.451067327	0.0
7.5981	541.626323652	1.0
7.6083	541.799551514	0.0
7.6186	541.974148161	0.0
7.6288	542.146723979	0.0
7.639	542.318976282	0.0
7.6493	542.492589661	1.0
7.6595	542.664193592	1.0
7.6698	542.837153476	0.0
7.68	543.008111477	3.0
7.6902	543.178748995	0.0
7.7005	543.350734829	1.0
7.7107	543.520730053	0.0
7.721	543.692068519	4.0
7.7312	543.861423868	0.0
7.7414	544.030461738	0.0
7.7517	544.200835285	1.0
7.7619	544.369236883	0.0
7.7722	544.538969131	0.0
7.7824	544.706736852	0.0
7.7926	544.874190071	0.0
7.8029	545.042966445	0.0
7.8131	545.209789357	0.0
7.8234	545.377930444	0.0
7.8336	545.544125421	1.0
7.8438	545.710008844	0.0
7.8541	545.877203018	1.0
7.8643	546.042462043	1.0
7.8746	546.209026885	1.0
7.8848	546.373663862	0.0
7.895	546.537992204	0.0
7.9053	546.703619011	1.0
7.9155	546.867328809	1.0
7.9258	547.032332184	0.0
7.936	547.195425765	0.0
7.9462	547.358213606	0.0
7.9565	547.522287739	0.0
7.9667	547.684462834	0.0
7.977	547.847919378	1.0
7.9872	548.009484034	0.0
7.9974	548.170745814	0.0
8.0077	548.333281828	1.0
8.0179	548.493936607	1.0
