TL-DOS Lehrstuhlversuch
detector=R1407204
job_number=2015-10-27-008
irradiation_dose [mSv]=0.4

[BEGIN DATA]
time [sec] 	 temperature [K] 	 photoncount 
0.0	246.281654409	0.0
0.0102	247.143175992	0.0
0.0205	248.011092073	3.0
0.0307	248.868554697	1.0
0.041	249.732381693	0.0
0.0512	250.585804482	2.0
0.0614	251.437224303	2.0
0.0717	252.294963644	1.0
0.0819	253.142372099	0.0
0.0922	253.9960703	0.0
0.1024	254.839486289	1.0
0.1126	255.680922796	0.0
0.1229	256.528604723	1.0
0.1331	257.3660769	2.0
0.1434	258.209765072	1.0
0.1536	259.043291596	2.0
0.1638	259.874861848	0.0
0.1741	260.71260429	0.0
0.1843	261.540256696	0.0
0.1946	262.374052211	0.0
0.2048	263.197805229	0.0
0.215	264.019624913	2.0
0.2253	264.847544414	0.0
0.2355	265.66549219	0.0
0.2458	266.489511045	0.0
0.256	267.303605156	0.0
0.2662	268.115788602	0.0
0.2765	268.934000342	0.0
0.2867	269.74235728	0.0
0.297	270.556714111	0.0
0.3072	271.361262569	0.0
0.3174	272.163922767	0.0
0.3277	272.972540574	1.0
0.3379	273.771419132	1.0
0.3482	274.57622723	1.0
0.3584	275.371341964	0.0
0.3686	276.164590578	0.0
0.3789	276.963726946	2.0
0.3891	277.753238262	0.0
0.3994	278.548609591	0.0
0.4096	279.334401216	1.0
0.4198	280.118348602	0.0
0.4301	280.908114705	0.0
0.4403	281.688368614	0.0
0.4506	282.474413825	1.0
0.4608	283.250991659	0.0
0.471	284.025746878	0.0
0.4813	284.806252587	0.0
0.4915	285.577357637	0.0
0.5018	286.354186083	0.0
0.512	287.121658162	1.0
0.5222	287.887328997	0.0
0.5325	288.658682894	0.0
0.5427	289.42074636	0.0
0.553	290.188466113	0.0
0.5632	290.946939206	0.0
0.5734	291.703632176	0.0
0.5837	292.465941571	0.0
0.5939	293.21906947	0.0
0.6042	293.977787334	0.0
0.6144	294.727366958	0.0
0.6246	295.475187333	0.0
0.6349	296.228558277	0.0
0.6451	296.972855383	0.0
0.6554	297.722676908	0.0
0.6656	298.463467345	0.0
0.6758	299.202519159	0.0
0.6861	299.947056461	0.0
0.6963	300.682626319	0.0
0.7066	301.42365582	0.0
0.7168	302.155760126	0.0
0.727	302.886146197	0.0
0.7373	303.621953434	1.0
0.7475	304.348898376	0.0
0.7578	305.081238943	0.0
0.768	305.804758968	1.0
0.7782	306.526580904	0.0
0.7885	307.253760442	0.0
0.7987	307.972181598	0.0
0.809	308.695935114	0.0
0.8192	309.410971512	0.0
0.8294	310.124329734	0.0
0.8397	310.842982735	0.0
0.8499	311.552980052	1.0
0.8602	312.268247204	1.0
0.8704	312.97489945	0.0
0.8806	313.679893197	0.0
0.8909	314.390119641	0.0
0.9011	315.091791891	0.0
0.9114	315.798672186	0.0
0.9216	316.497038589	0.0
0.9318	317.193765939	0.0
0.9421	317.89566463	0.0
0.9523	318.58910943	0.0
0.9626	319.287701207	0.0
0.9728	319.977878923	0.0
0.983	320.666436804	0.0
0.9933	321.360105389	0.0
1.0035	322.04541921	0.0
1.0138	322.735819656	1.0
1.024	323.417904701	0.0
1.0342	324.098388903	0.0
1.0445	324.783923885	0.0
1.0547	325.461202066	1.0
1.065	326.143507229	0.0
1.0752	326.817594492	1.0
1.0854	327.490099685	0.0
1.0957	328.167596434	0.0
1.1059	328.836933196	0.0
1.1162	329.511237998	1.0
1.1264	330.177421258	0.0
1.1366	330.842040998	0.0
1.1469	331.511593766	0.0
1.1571	332.173082227	0.0
1.1674	332.839480475	0.0
1.1776	333.49785241	0.0
1.1878	334.154679159	0.0
1.1981	334.816381093	0.0
1.2083	335.470113278	0.0
1.2186	336.128697681	1.0
1.2288	336.779349883	0.0
1.239	337.428475016	0.0
1.2493	338.082418171	2.0
1.2595	338.728485027	0.0
1.2698	339.379347205	0.0
1.28	340.022370192	0.0
1.2902	340.663884015	0.0
1.3005	341.310159367	0.0
1.3107	341.948650772	0.0
1.321	342.591881273	1.0
1.3312	343.2273645	1.0
1.3414	343.86135626	0.0
1.3517	344.500053717	0.0
1.3619	345.131058499	1.0
1.3722	345.766746806	1.0
1.3824	346.394778682	1.0
1.3926	347.021336579	2.0
1.4029	347.652544995	0.0
1.4131	348.276150937	2.0
1.4234	348.904385488	0.0
1.4336	349.525053383	0.0
1.4438	350.144264582	0.0
1.4541	350.76807177	1.0
1.4643	351.384365627	0.0
1.4746	352.005233821	1.0
1.4848	352.618624081	2.0
1.495	353.230574725	0.0
1.5053	353.84706747	2.0
1.5155	354.456134979	1.0
1.5258	355.06972319	2.0
1.536	355.675921149	2.0
1.5462	356.280696372	2.0
1.5565	356.889960437	2.0
1.5667	357.491886333	1.0
1.577	358.098279921	1.0
1.5872	358.697369912	4.0
1.5974	359.29505385	3.0
1.6077	359.897173996	2.0
1.6179	360.492042016	3.0
1.6282	361.091325343	1.0
1.6384	361.683390711	3.0
1.6486	362.274066512	0.0
1.6589	362.869126505	2.0
1.6691	363.457019406	2.0
1.6794	364.049275842	2.0
1.6896	364.634398954	2.0
1.6998	365.218148792	0.0
1.7101	365.806231415	2.0
1.7203	366.387230984	3.0
1.7306	366.972542924	5.0
1.7408	367.550805181	5.0
1.751	368.127710267	3.0
1.7613	368.708897334	3.0
1.7715	369.283084398	4.0
1.7818	369.86153327	3.0
1.792	370.433015119	4.0
1.8022	371.00315571	4.0
1.8125	371.577528074	2.0
1.8227	372.144982514	3.0
1.833	372.716648789	4.0
1.8432	373.281429734	7.0
1.8534	373.844885148	6.0
1.8637	374.412522715	13.0
1.8739	374.973323474	5.0
1.8842	375.538286682	9.0
1.8944	376.096445294	6.0
1.9046	376.653293918	14.0
1.9149	377.214275656	9.0
1.9251	377.768500752	11.0
1.9354	378.32683949	4.0
1.9456	378.878453419	11.0
1.9558	379.42877272	13.0
1.9661	379.983176673	16.0
1.9763	380.530903209	20.0
1.9866	381.082695152	12.0
1.9968	381.627841138	15.0
2.007	382.171707676	19.0
2.0173	382.719610971	16.0
2.0275	383.260915145	13.0
2.0378	383.806237058	19.0
2.048	384.34499094	20.0
2.0582	384.882480377	24.0
2.0685	385.423959238	23.0
2.0787	385.958916355	20.0
2.089	386.497844102	25.0
2.0992	387.030280831	29.0
2.1094	387.561467941	33.0
2.1197	388.096597697	31.0
2.1299	388.625282181	33.0
2.1402	389.157890736	36.0
2.1504	389.684084384	29.0
2.1606	390.209043065	29.0
2.1709	390.737898163	35.0
2.1811	391.260383563	32.0
2.1914	391.786747022	44.0
2.2016	392.306770792	34.0
2.2118	392.825574075	46.0
2.2221	393.348228089	39.0
2.2323	393.864587091	43.0
2.2426	394.384778681	52.0
2.2528	394.898704918	49.0
2.263	395.411424979	33.0
2.2733	395.927950618	60.0
2.2835	396.438255059	40.0
2.2938	396.952347148	48.0
2.304	397.460247348	62.0
2.3142	397.966955516	54.0
2.3245	398.477424639	58.0
2.3347	398.98174551	64.0
2.345	399.489809618	55.0
2.3552	399.99175444	75.0
2.3654	400.492521206	68.0
2.3757	400.997004829	66.0
2.3859	401.495412291	64.0
2.3962	401.997519099	72.0
2.4064	402.493578372	59.0
2.4166	402.988473403	84.0
2.4269	403.487041709	81.0
2.4371	403.979605099	75.0
2.4474	404.475824459	76.0
2.4576	404.966067194	79.0
2.4678	405.455159339	68.0
2.4781	405.947881687	57.0
2.4883	406.434669531	71.0
2.4986	406.925070476	81.0
2.5088	407.409564875	68.0
2.519	407.892922175	51.0
2.5293	408.379867113	78.0
2.5395	408.860947131	78.0
2.5498	409.345597884	73.0
2.56	409.82441135	58.0
2.5702	410.302101049	64.0
2.5805	410.783336319	67.0
2.5907	411.258775439	63.0
2.601	411.737743425	61.0
2.6112	412.210942568	61.0
2.6214	412.683031122	54.0
2.6317	413.158623673	66.0
2.6419	413.628488036	67.0
2.6522	414.101839888	52.0
2.6624	414.56949054	41.0
2.6726	415.036043625	57.0
2.6829	415.50605962	50.0
2.6931	415.970414594	66.0
2.7034	416.438216164	50.0
2.7136	416.900383383	45.0
2.7238	417.361465904	52.0
2.7341	417.825970732	34.0
2.7443	418.284880917	37.0
2.7546	418.747197284	38.0
2.7648	419.203945367	35.0
2.775	419.65962147	28.0
2.7853	420.118679751	43.0
2.7955	420.572208989	34.0
2.8058	421.029104471	43.0
2.816	421.480496959	33.0
2.8262	421.930830037	33.0
2.8365	422.384505635	39.0
2.8467	422.832717021	35.0
2.857	423.28425518	37.0
2.8672	423.73035487	46.0
2.8774	424.175407571	36.0
2.8877	424.623763602	47.0
2.8979	425.06671949	37.0
2.9082	425.512963143	37.0
2.9184	425.953832095	38.0
2.9286	426.393666336	44.0
2.9389	426.836765173	45.0
2.9491	427.274527186	45.0
2.9594	427.715538414	41.0
2.9696	428.151237962	45.0
2.9798	428.585914932	50.0
2.9901	429.023818218	59.0
3.0003	429.456447257	44.0
3.0106	429.892287412	46.0
3.0208	430.32287817	50.0
3.031	430.75245834	54.0
3.0413	431.185226995	54.0
3.0515	431.612783247	61.0
3.0618	432.043512964	41.0
3.072	432.469054834	57.0
3.0822	432.893597966	59.0
3.0925	433.321292197	61.0
3.1027	433.743835143	63.0
3.113	434.169514343	46.0
3.1232	434.590066527	71.0
3.1334	435.009631682	50.0
3.1437	435.432310989	67.0
3.1539	435.849899412	57.0
3.1642	436.270587315	59.0
3.1744	436.686208319	72.0
3.1846	437.100853868	61.0
3.1949	437.518577053	50.0
3.2051	437.931269048	65.0
3.2154	438.347024179	61.0
3.2256	438.757771823	68.0
3.2358	439.16755545	65.0
3.2461	439.580380626	79.0
3.2563	439.988233605	60.0
3.2666	440.399113804	75.0
3.2768	440.805045231	80.0
3.287	441.210023944	72.0
3.2973	441.618008544	70.0
3.3075	442.021079247	72.0
3.3178	442.427141674	69.0
3.328	442.828313357	68.0
3.3382	443.228543496	72.0
3.3485	443.631744277	63.0
3.3587	444.030088779	63.0
3.369	444.431389925	94.0
3.3792	444.827857673	75.0
3.3894	445.223394919	77.0
3.3997	445.621867973	76.0
3.4099	446.015541691	80.0
3.4202	446.412137385	72.0
3.4304	446.803956355	69.0
3.4406	447.194855732	62.0
3.4509	447.588656495	74.0
3.4611	447.977714195	63.0
3.4714	448.369659611	82.0
3.4816	448.756884312	87.0
3.4918	449.143200203	51.0
3.5021	449.532383459	70.0
3.5123	449.916879268	50.0
3.5226	450.304228931	61.0
3.5328	450.686913233	46.0
3.543	451.068699381	67.0
3.5533	451.453319273	57.0
3.5635	451.83330668	42.0
3.5738	452.21611448	56.0
3.584	452.594311621	59.0
3.5942	452.97162114	86.0
3.6045	453.351731175	58.0
3.6147	453.727263044	67.0
3.625	454.105582234	46.0
3.6352	454.479344829	66.0
3.6454	454.852230209	46.0
3.6557	455.227883268	65.0
3.6659	455.599011842	60.0
3.6762	455.972895055	62.0
3.6864	456.3422751	60.0
3.6966	456.710788217	53.0
3.7069	457.08203656	60.0
3.7171	457.44881347	60.0
3.7274	457.818312719	59.0
3.7376	458.183361602	57.0
3.7478	458.547553722	69.0
3.7581	458.914448997	60.0
3.7683	459.276925268	60.0
3.7786	459.642091958	59.0
3.7888	460.002860464	67.0
3.799	460.362782254	55.0
3.8093	460.725375501	48.0
3.8195	461.083601561	58.0
3.8298	461.444486493	50.0
3.84	461.801024812	53.0
3.8502	462.156726342	57.0
3.8605	462.515068007	53.0
3.8707	462.86909369	67.0
3.881	463.22574707	55.0
3.8912	463.578104803	55.0
3.9014	463.929635558	44.0
3.9117	464.283775491	62.0
3.9219	464.633650051	66.0
3.9322	464.986121495	54.0
3.9424	465.334347661	47.0
3.9526	465.681756546	59.0
3.9629	466.031744015	59.0
3.9731	466.377516124	53.0
3.9834	466.725854668	50.0
3.9936	467.069997712	53.0
4.0038	467.413333058	68.0
4.0141	467.759216753	59.0
4.0243	468.100934515	53.0
4.0346	468.445188619	66.0
4.0448	468.785296417	49.0
4.055	469.124605988	60.0
4.0653	469.466434028	55.0
4.0755	469.804144981	63.0
4.0858	470.144362537	60.0
4.096	470.480482405	50.0
4.1062	470.815813406	57.0
4.1165	471.153633344	52.0
4.1267	471.487384472	50.0
4.137	471.82361281	42.0
4.1472	472.155791508	51.0
4.1574	472.487190589	51.0
4.1677	472.821049423	56.0
4.1779	473.150887155	61.0
4.1882	473.483173052	46.0
4.1984	473.811456792	39.0
4.2086	474.138970057	56.0
4.2189	474.468914232	59.0
4.2291	474.794884456	47.0
4.2394	475.123274138	44.0
4.2496	475.447708591	43.0
4.2598	475.771381602	67.0
4.2701	476.097457021	48.0
4.2803	476.419605084	60.0
4.2906	476.744144236	44.0
4.3008	477.064774536	47.0
4.311	477.384652322	46.0
4.3213	477.706904348	48.0
4.3315	478.025275067	49.0
4.3418	478.346008839	41.0
4.352	478.662879592	45.0
4.3622	478.979006655	57.0
4.3725	479.297480117	51.0
4.3827	479.612117784	46.0
4.393	479.929090796	45.0
4.4032	480.242246084	44.0
4.4134	480.554666402	46.0
4.4237	480.869405607	43.0
4.4339	481.180353994	43.0
4.4442	481.493610342	48.0
4.4544	481.803093731	47.0
4.4646	482.111850768	52.0
4.4749	482.422899502	46.0
4.4851	482.730201866	40.0
4.4954	483.03978513	47.0
4.5056	483.345639675	53.0
4.5158	483.650776385	44.0
4.5261	483.958177921	54.0
4.5363	484.261877014	48.0
4.5466	484.567830263	40.0
4.5568	484.870098514	52.0
4.567	485.171657346	40.0
4.5773	485.475454448	33.0
4.5875	485.775592522	49.0
4.5978	486.077958319	47.0
4.608	486.376682326	50.0
4.6182	486.674705234	50.0
4.6285	486.974940167	46.0
4.6387	487.271558974	42.0
4.649	487.570379384	40.0
4.6592	487.865600707	50.0
4.6694	488.16012915	46.0
4.6797	488.456843681	42.0
4.6899	488.749984488	41.0
4.7002	489.045301082	38.0
4.7104	489.33706079	35.0
4.7206	489.628135743	46.0
4.7309	489.921371151	46.0
4.7411	490.211074738	40.0
4.7514	490.502928602	46.0
4.7616	490.791267284	47.0
4.7718	491.078929241	41.0
4.7821	491.36872632	41.0
4.7923	491.655032991	48.0
4.8026	491.943464725	38.0
4.8128	492.228422495	44.0
4.823	492.512711475	36.0
4.8333	492.799110542	45.0
4.8435	493.082060127	41.0
4.8538	493.367109857	47.0
4.864	493.648726359	53.0
4.8742	493.929681911	38.0
4.8845	494.212722808	40.0
4.8947	494.492354671	42.0
4.905	494.774062054	32.0
4.9152	495.052376464	47.0
4.9254	495.330037675	36.0
4.9357	495.609759779	52.0
4.9459	495.886112822	31.0
4.9562	496.164517048	25.0
4.9664	496.439568085	53.0
4.9766	496.713973582	32.0
4.9869	496.990415808	42.0
4.9971	497.263528476	44.0
5.0074	497.538668276	43.0
5.0176	497.810494205	44.0
5.0278	498.081682164	32.0
5.0381	498.354882969	41.0
5.0483	498.624793257	47.0
5.0586	498.896706909	35.0
5.0688	499.165345546	54.0
5.079	499.433353693	46.0
5.0893	499.703351085	39.0
5.0995	499.970096543	36.0
5.1098	500.238821874	38.0
5.12	500.504310592	39.0
5.1302	500.769176212	47.0
5.1405	501.036007753	33.0
5.1507	501.29962549	40.0
5.161	501.565199885	44.0
5.1712	501.827575617	39.0
5.1814	502.089335558	39.0
5.1917	502.353038369	26.0
5.2019	502.613565059	41.0
5.2122	502.876025464	33.0
5.2224	503.135324712	34.0
5.2326	503.39401539	27.0
5.2429	503.654626156	34.0
5.2531	503.912098043	38.0
5.2634	504.171480972	37.0
5.2736	504.42773981	43.0
5.2838	504.683397213	39.0
5.2941	504.94095219	32.0
5.3043	505.195405093	36.0
5.3146	505.45174663	26.0
5.3248	505.705000708	43.0
5.335	505.957660403	29.0
5.3453	506.212195422	27.0
5.3555	506.46366474	32.0
5.3658	506.717000547	34.0
5.376	506.967285096	33.0
5.3862	507.216982233	39.0
5.3965	507.468532704	33.0
5.4067	507.717053422	30.0
5.417	507.967418742	38.0
5.4272	508.214768583	37.0
5.4374	508.461537898	21.0
5.4477	508.710138817	38.0
5.4579	508.955745508	29.0
5.4682	509.203175172	24.0
5.4784	509.447624715	27.0
5.4886	509.69150054	26.0
5.4989	509.937186491	34.0
5.5091	510.179913323	23.0
5.5194	510.424441754	24.0
5.5296	510.666025006	35.0
5.5398	510.907041267	32.0
5.5501	511.149846431	25.0
5.5603	511.389727172	29.0
5.5706	511.631388387	28.0
5.5808	511.870138957	21.0
5.591	512.108329185	27.0
5.6013	512.348287339	33.0
5.6115	512.585355361	26.0
5.6218	512.82418298	17.0
5.632	513.060134083	22.0
5.6422	513.295531414	32.0
5.6525	513.532675941	15.0
5.6627	513.766964224	22.0
5.673	514.002991473	18.0
5.6832	514.236175934	16.0
5.6934	514.468813116	24.0
5.7037	514.703177007	17.0
5.7139	514.934718146	25.0
5.7242	515.167977859	6.0
5.7344	515.398428119	9.0
5.7446	515.628337515	13.0
5.7549	515.859953376	19.0
5.7651	516.088779581	12.0
5.7754	516.31930421	14.0
5.7856	516.547052328	13.0
5.7958	516.774265924	12.0
5.8061	517.003165975	14.0
5.8163	517.229309081	13.0
5.8266	517.457130696	13.0
5.8368	517.682208355	19.0
5.847	517.906757761	14.0
5.8573	518.132973847	20.0
5.8675	518.356465315	13.0
5.8778	518.58161561	11.0
5.888	518.804054124	13.0
5.8982	519.025970578	13.0
5.9085	519.249534169	17.0
5.9187	519.47040509	8.0
5.929	519.692915388	8.0
5.9392	519.912745701	8.0
5.9494	520.132060076	7.0
5.9597	520.353002275	4.0
5.9699	520.571283377	7.0
5.9802	520.791184632	6.0
5.9904	521.008437327	10.0
6.0006	521.225180134	5.0
6.0109	521.443531678	8.0
6.0211	521.659253326	9.0
6.0314	521.876576132	9.0
6.0416	522.091281433	4.0
6.0518	522.305482824	4.0
6.0621	522.521274089	8.0
6.0723	522.734466296	6.0
6.0826	522.949240885	7.0
6.0928	523.161428662	7.0
6.103	523.373118437	8.0
6.1133	523.586379444	7.0
6.1235	523.797071867	5.0
6.1338	524.00932812	5.0
6.144	524.21902789	6.0
6.1542	524.428235499	5.0
6.1645	524.638995916	1.0
6.1747	524.847217868	3.0
6.185	525.056985312	5.0
6.1952	525.26422625	5.0
6.2054	525.470980798	4.0
6.2157	525.679269946	5.0
6.2259	525.885050394	6.0
6.2362	526.092358212	3.0
6.2464	526.297169148	2.0
6.2566	526.501499398	6.0
6.2669	526.707346254	5.0
6.2771	526.910713825	1.0
6.2874	527.115590857	2.0
6.2976	527.318000285	5.0
6.3078	527.519934663	3.0
6.3181	527.723367863	3.0
6.3283	527.92435085	6.0
6.3386	528.126825599	7.0
6.3488	528.326861678	3.0
6.359	528.526428276	2.0
6.3693	528.727476123	2.0
6.3795	528.926102485	4.0
6.3898	529.126203119	3.0
6.4	529.323893677	3.0
6.4102	529.521120258	1.0
6.4205	529.719810721	3.0
6.4307	529.916108093	5.0
6.441	530.113862448	3.0
6.4512	530.309234988	4.0
6.4614	530.504148991	2.0
6.4717	530.700509711	1.0
6.4819	530.8945054	3.0
6.4922	531.089940989	1.0
6.5024	531.283022689	3.0
6.5126	531.475651231	1.0
6.5229	531.669709525	2.0
6.5331	531.861430519	2.0
6.5434	532.05457453	0.0
6.5536	532.245392254	1.0
6.5638	532.435762131	0.0
6.5741	532.627544997	1.0
6.5843	532.817017969	4.0
6.5946	533.007897272	3.0
6.6048	533.196477564	1.0
6.615	533.384615262	0.0
6.6253	533.574149379	0.0
6.6355	533.761400688	1.0
6.6458	533.950041838	1.0
6.656	534.136410934	4.0
6.6662	534.322342625	1.0
6.6765	534.509654362	1.0
6.6867	534.694710058	1.0
6.697	534.881139298	3.0
6.7072	535.065323125	1.0
6.7174	535.249074676	1.0
6.7277	535.434190091	2.0
6.7379	535.617075918	1.0
6.7482	535.801319184	1.0
6.7584	535.983343366	1.0
6.7686	536.16494034	0.0
6.7789	536.347885187	2.0
6.7891	536.528626588	0.0
6.7994	536.710709511	1.0
6.8096	536.89059937	0.0
6.8198	537.070067031	0.0
6.8301	537.25086676	0.0
6.8403	537.429488879	0.0
6.8506	537.609436791	1.0
6.8608	537.787217354	0.0
6.871	537.964580668	0.0
6.8813	538.143260432	0.0
6.8915	538.31978812	0.0
6.9018	538.497626055	2.0
6.912	538.673322053	1.0
6.9222	538.848605696	3.0
6.9325	539.025190352	1.0
6.9427	539.199648166	2.0
6.953	539.375400864	0.0
6.9632	539.549036741	2.0
6.9734	539.722265097	2.0
6.9837	539.896779212	0.0
6.9939	540.069191423	1.0
7.0042	540.242883334	2.0
7.0144	540.414483246	0.0
7.0246	540.585680415	1.0
7.0349	540.758148266	0.0
7.0451	540.928538859	1.0
7.0554	541.100194148	1.0
7.0656	541.269781966	0.0
7.0758	541.438971765	2.0
7.0861	541.609417346	0.0
7.0963	541.777810027	0.0
7.1066	541.947452573	1.0
7.1168	542.115051891	0.0
7.127	542.282257857	0.0
7.1373	542.45070488	1.0
7.1475	542.617123074	0.0
7.1578	542.784776479	1.0
7.168	542.950410613	0.0
7.1782	543.115656006	1.0
7.1885	543.282127906	1.0
7.1987	543.446594765	1.0
7.209	543.612282352	0.0
7.2192	543.775974344	0.0
7.2294	543.939282155	1.0
7.2397	544.10380209	0.0
7.2499	544.266340495	0.0
7.2602	544.430085313	0.0
7.2704	544.591857937	1.0
7.2806	544.753250884	2.0
7.2909	544.915841742	0.0
7.3011	545.076474304	0.0
7.3114	545.238299135	1.0
7.3216	545.398174895	2.0
7.3318	545.557675431	0.0
7.3421	545.718359832	0.0
7.3523	545.877108899	0.0
7.3626	546.037036254	0.0
7.3728	546.195037393	0.0
7.383	546.352667706	1.0
7.3933	546.511468004	0.0
7.4035	546.668355661	0.0
7.4138	546.826407789	1.0
7.424	546.982556288	1.0
7.4342	547.138338309	0.0
7.4445	547.295276595	0.0
7.4547	547.450324667	0.0
7.465	547.606523557	1.0
7.4752	547.760841138	2.0
7.4854	547.914796539	0.0
7.4957	548.069894647	1.0
7.5059	548.223124704	0.0
7.5162	548.377492086	0.0
7.5264	548.530000218	2.0
7.5366	548.682150416	2.0
7.5469	548.835429923	3.0
7.5571	548.986863283	1.0
7.5674	549.139420632	0.0
7.5776	549.290140531	3.0
7.5878	549.440506693	0.0
7.5981	549.591988923	0.0
7.6083	549.741646653	0.0
7.6186	549.892415192	1.0
7.6288	550.041367827	1.0
7.639	550.189970873	0.0
7.6493	550.339676899	0.0
7.6595	550.487579819	1.0
7.6698	550.636580523	0.0
7.68	550.783786615	2.0
7.6902	550.930647217	3.0
7.7005	551.078597868	1.0
7.7107	551.224766553	0.0
7.721	551.372020151	0.0
7.7312	551.51750018	0.0
7.7414	551.66263877	1.0
7.7517	551.808854626	1.0
7.7619	551.953309412	0.0
7.7722	552.09883639	0.0
7.7824	552.242610594	2.0
7.7926	552.386047363	1.0
7.8029	552.530548767	1.0
7.8131	552.67330975	0.0
7.8234	552.817130352	2.0
7.8336	552.959218734	1.0
7.8438	553.100973636	1.0
7.8541	553.24378069	0.0
7.8643	553.384867731	0.0
7.8746	553.527001966	0.0
7.8848	553.667424292	1.0
7.895	553.807517049	0.0
7.9053	553.948649621	1.0
7.9155	554.088082347	1.0
7.9258	554.228549989	0.0
7.936	554.367325794	1.0
7.9462	554.505775895	0.0
7.9565	554.645253618	0.0
7.9667	554.783051427	0.0
7.977	554.921872017	0.0
7.9872	555.059020608	0.0
7.9974	555.195847314	0.0
8.0077	555.333689592	0.0
8.0179	555.469871655	1.0
8.0282	555.607064506	0.0
