TL-DOS Lehrstuhlversuch
detector=R1407304
job_number=2015-10-27-008
irradiation_dose [mSv]=0.4

[BEGIN DATA]
time [sec] 	 temperature [K] 	 photoncount 
0.0	118.282483822	0.0
0.0102	120.008204593	0.0
0.0205	121.743898617	1.0
0.0307	123.455890468	2.0
0.041	125.17777623	2.0
0.0512	126.876148381	4.0
0.0614	128.567784323	0.0
0.0717	130.269196536	1.0
0.0819	131.947374718	0.0
0.0922	133.635251397	1.0
0.1024	135.300078884	2.0
0.1126	136.958303208	2.0
0.1229	138.626110712	1.0
0.1331	140.271143083	0.0
0.1434	141.925682394	1.0
0.1536	143.557627759	0.0
0.1638	145.183100382	0.0
0.1741	146.817966905	3.0
0.1843	148.430508129	1.0
0.1946	150.052368521	1.0
0.2048	151.652081222	0.0
0.215	153.245449024	0.0
0.2253	154.848025187	1.0
0.2355	156.428716999	3.0
0.2458	158.018543916	0.0
0.256	159.586660581	0.0
0.2662	161.148557666	0.0
0.2765	162.719481238	0.0
0.2867	164.268952698	0.0
0.297	165.827378835	0.0
0.3072	167.364523521	0.0
0.3174	168.89557147	1.0
0.3277	170.435467623	0.0
0.3379	171.954335366	0.0
0.3482	173.481980922	0.0
0.3584	174.988765358	0.0
0.3686	176.489573474	0.0
0.3789	177.999055033	0.0
0.3891	179.487923516	0.0
0.3994	180.985396439	1.0
0.4096	182.462420273	0.0
0.4198	183.933585826	0.0
0.4301	185.413253511	0.0
0.4403	186.872715251	0.0
0.4506	188.340611484	0.0
0.4608	189.788462519	1.0
0.471	191.230570981	0.0
0.4813	192.681013648	0.0
0.4915	194.111649459	0.0
0.5018	195.550553174	0.0
0.512	196.969807604	0.0
0.5222	198.383432883	0.0
0.5325	199.805227758	0.0
0.5427	201.207606983	0.0
0.553	202.618090812	1.0
0.5632	204.009313451	0.0
0.5734	205.39501812	1.0
0.5837	206.788731028	0.0
0.5939	208.163411765	0.0
0.6042	209.546037032	0.0
0.6144	210.909781537	1.0
0.6246	212.268117058	0.0
0.6349	213.634302647	0.0
0.6451	214.981831971	0.0
0.6554	216.337148911	0.0
0.6656	217.673958006	0.0
0.6758	219.00546495	1.0
0.6861	220.344666913	0.0
0.6963	221.665581093	0.0
0.7066	222.994129076	0.0
0.7168	224.304534763	0.0
0.727	225.609743022	1.0
0.7373	226.922494316	0.0
0.7475	228.21731903	0.0
0.7578	229.519626771	0.0
0.768	230.804150545	1.0
0.7782	232.083579546	0.0
0.7885	233.3704026	1.0
0.7987	234.639653142	0.0
0.809	235.916238914	0.0
0.8192	237.175391972	1.0
0.8294	238.429550883	0.0
0.8397	239.690957807	0.0
0.8499	240.935139295	0.0
0.8602	242.186511134	0.0
0.8704	243.420794573	0.0
0.8806	244.650182506	0.0
0.8909	245.886675295	0.0
0.9011	247.10628287	0.0
0.9114	248.332938778	0.0
0.9216	249.542843801	0.0
0.9318	250.747950009	0.0
0.9421	251.960020744	0.0
0.9523	253.155539766	0.0
0.9626	254.357967909	0.0
0.9728	255.543976016	0.0
0.983	256.725280088	1.0
0.9933	257.913411132	0.0
1.0035	259.085317376	0.0
1.0138	260.263996279	0.0
1.024	261.426579458	0.0
1.0342	262.584551513	1.0
1.0445	263.749215699	2.0
1.0547	264.897975543	0.0
1.065	266.053374278	0.0
1.0752	267.192995197	0.0
1.0854	268.328096067	0.0
1.0957	269.469756891	0.0
1.1059	270.595827501	1.0
1.1162	271.728405877	0.0
1.1264	272.845518065	0.0
1.1366	273.95819948	0.0
1.1469	275.077311283	0.0
1.1571	276.181140795	0.0
1.1674	277.291349538	0.0
1.1776	278.386397567	0.0
1.1878	279.477102336	0.0
1.1981	280.574110485	0.0
1.2083	281.656138185	1.0
1.2186	282.744419119	0.0
1.2288	283.81783878	0.0
1.239	284.887000964	1.0
1.2493	285.96234203	0.0
1.2595	287.022998527	0.0
1.2698	288.08978475	0.0
1.28	289.142003225	0.0
1.2902	290.190048314	0.0
1.3005	291.244150246	2.0
1.3107	292.283857643	0.0
1.321	293.329573698	1.0
1.3312	294.361009735	0.0
1.3414	295.388354813	0.0
1.3517	296.421637106	1.0
1.3619	297.440809171	0.0
1.3722	298.465871217	2.0
1.3824	299.47693529	1.0
1.3926	300.483989206	0.0
1.4029	301.496863069	0.0
1.4131	302.495905397	0.0
1.4234	303.500721373	1.0
1.4336	304.49181585	2.0
1.4438	305.478979375	1.0
1.4541	306.471847897	2.0
1.4643	307.451158072	1.0
1.4746	308.436127859	0.0
1.4848	309.407647161	1.0
1.495	310.375313152	0.0
1.5053	311.34857146	0.0
1.5155	312.308539213	1.0
1.5258	313.274054794	1.0
1.536	314.226385552	1.0
1.5462	315.174939105	0.0
1.5565	316.128974522	1.0
1.5667	317.069981886	0.0
1.577	318.016427503	0.0
1.5872	318.949948711	0.0
1.5974	319.879767319	0.0
1.6077	320.814959517	0.0
1.6179	321.73738098	1.0
1.6282	322.665133285	1.0
1.6384	323.580216452	2.0
1.6486	324.491670148	0.0
1.6589	325.408391301	1.0
1.6691	326.312593955	1.0
1.6794	327.22202216	0.0
1.6896	328.119031457	0.0
1.6998	329.01248297	0.0
1.7101	329.9110979	1.0
1.7203	330.797441586	2.0
1.7306	331.688907613	3.0
1.7408	332.568200018	5.0
1.751	333.444004908	5.0
1.7613	334.324871234	1.0
1.7715	335.193708685	1.0
1.7818	336.067567305	2.0
1.792	336.929492746	6.0
1.8022	337.787999554	1.0
1.8125	338.651467828	4.0
1.8227	339.503144811	5.0
1.833	340.35974379	1.0
1.8432	341.204645283	4.0
1.8534	342.046195664	3.0
1.8637	342.892609518	2.0
1.8739	343.72746497	4.0
1.8842	344.567145204	1.0
1.8944	345.395358989	3.0
1.9046	346.220287852	1.0
1.9149	347.049984128	5.0
1.9251	347.868350293	7.0
1.9354	348.691445945	1.0
1.9456	349.503301623	10.0
1.9558	350.311937259	8.0
1.9661	351.125246147	5.0
1.9763	351.927448707	6.0
1.9866	352.734287341	6.0
1.9968	353.530108002	7.0
2.007	354.32277222	8.0
2.0173	355.120017388	10.0
2.0275	355.90637559	8.0
2.0378	356.697278299	10.0
2.048	357.477380652	3.0
2.0582	358.254388905	12.0
2.0685	359.03588763	8.0
2.0787	359.806714417	8.0
2.089	360.581995952	11.0
2.0992	361.34669045	13.0
2.1094	362.10835196	11.0
2.1197	362.87441525	10.0
2.1299	363.630017384	10.0
2.1402	364.389986281	5.0
2.1504	365.139577246	9.0
2.1606	365.886195127	14.0
2.1709	366.637127849	17.0
2.1811	367.377806034	7.0
2.1914	368.122764733	17.0
2.2016	368.857550475	13.0
2.2118	369.589421856	15.0
2.2221	370.325522854	14.0
2.2323	371.051571853	19.0
2.2426	371.781816822	18.0
2.2528	372.502089761	15.0
2.263	373.2195059	25.0
2.2733	373.941068117	24.0
2.2835	374.652776873	19.0
2.2938	375.368598723	20.0
2.304	376.074645502	25.0
2.3142	376.777891906	35.0
2.3245	377.485202498	28.0
2.3347	378.182854246	32.0
2.345	378.88453785	22.0
2.3552	379.576639451	23.0
2.3654	380.265995987	21.0
2.3757	380.959336439	23.0
2.3859	381.64320882	32.0
2.3962	382.331033423	44.0
2.4064	383.009465277	28.0
2.4166	383.685206285	26.0
2.4269	384.364852523	39.0
2.4371	385.035217693	44.0
2.4474	385.709457026	37.0
2.4576	386.374489127	39.0
2.4678	387.036883527	48.0
2.4781	387.703106026	38.0
2.4883	388.360230768	56.0
2.4986	389.021153153	54.0
2.5088	389.673050159	41.0
2.519	390.322361563	52.0
2.5293	390.975425456	57.0
2.5395	391.619571282	45.0
2.5498	392.267439744	75.0
2.56	392.906461088	63.0
2.5702	393.542947898	56.0
2.5805	394.183113081	52.0
2.5907	394.814536339	55.0
2.601	395.449608707	47.0
2.6112	396.076008696	64.0
2.6214	396.699924212	56.0
2.6317	397.327445448	59.0
2.6419	397.946397422	65.0
2.6522	398.568926432	47.0
2.6624	399.182954353	69.0
2.6726	399.79454687	70.0
2.6829	400.409673892	80.0
2.6931	401.016400903	77.0
2.7034	401.6266343	70.0
2.7136	402.228534513	74.0
2.7238	402.828047425	77.0
2.7341	403.431025031	77.0
2.7443	404.025768536	79.0
2.7546	404.623949171	62.0
2.7648	405.213961212	78.0
2.775	405.801633103	82.0
2.7853	406.392701257	65.0
2.7955	406.975697942	63.0
2.8058	407.562063871	73.0
2.816	408.140422544	73.0
2.8262	408.716487287	67.0
2.8365	409.295881214	52.0
2.8467	409.867363092	57.0
2.857	410.442147667	69.0
2.8672	411.009083138	57.0
2.8774	411.573769987	60.0
2.8877	412.141720264	53.0
2.8979	412.701914765	44.0
2.9082	413.265346731	56.0
2.9184	413.82108462	41.0
2.9286	414.374618301	49.0
2.9389	414.931350954	46.0
2.9491	415.480481014	46.0
2.9594	416.032784596	56.0
2.9696	416.577546069	40.0
2.9798	417.120146868	40.0
2.9901	417.665883456	37.0
3.0003	418.204167611	33.0
3.0106	418.745562608	42.0
3.0208	419.279564459	38.0
3.031	419.811448313	44.0
3.0413	420.34640602	48.0
3.0515	420.874058488	34.0
3.0618	421.404760355	39.0
3.072	421.9282151	33.0
3.0822	422.449593679	31.0
3.0925	422.9739854	36.0
3.1027	423.491216168	40.0
3.113	424.011436106	38.0
3.1232	424.52455206	36.0
3.1334	425.035632856	39.0
3.1437	425.54966728	37.0
3.1539	426.056682188	34.0
3.1642	426.566627226	34.0
3.1744	427.069608592	41.0
3.1846	427.570594996	38.0
3.1949	428.074476691	43.0
3.2051	428.571477512	44.0
3.2154	429.071350592	57.0
3.2256	429.564397538	49.0
3.2358	430.055488925	25.0
3.2461	430.549418419	43.0
3.2563	431.036602943	40.0
3.2666	431.526602995	45.0
3.2768	432.009911737	47.0
3.287	432.491303545	36.0
3.2973	432.975477403	43.0
3.3075	433.453039512	52.0
3.3178	433.93336154	46.0
3.328	434.407124418	43.0
3.3382	434.879008223	52.0
3.3485	435.35361913	46.0
3.3587	435.821748878	50.0
3.369	436.292584032	53.0
3.3792	436.756989588	64.0
3.3894	437.219553183	57.0
3.3997	437.684790018	57.0
3.4099	438.143673703	76.0
3.4202	438.60520936	57.0
3.4304	439.060442409	63.0
3.4406	439.51386988	57.0
3.4509	439.96991779	59.0
3.4611	440.419738032	49.0
3.4714	440.872157867	57.0
3.4816	441.318399577	54.0
3.4918	441.762871371	59.0
3.5021	442.209911847	65.0
3.5123	442.650847659	55.0
3.5226	443.094331718	67.0
3.5328	443.531759678	75.0
3.543	443.967452679	76.0
3.5533	444.405663629	70.0
3.5635	444.837890487	64.0
3.5738	445.272615262	77.0
3.584	445.701403553	72.0
3.5942	446.128491151	66.0
3.6045	446.558046967	65.0
3.6147	446.981736882	63.0
3.625	447.407875379	71.0
3.6352	447.828194643	67.0
3.6454	448.246846805	57.0
3.6557	448.667918434	64.0
3.6659	449.083240021	71.0
3.6762	449.500961828	58.0
3.6864	449.912979337	72.0
3.6966	450.323362671	75.0
3.7069	450.736117686	54.0
3.7171	451.143236228	61.0
3.7274	451.552707582	65.0
3.7376	451.956587305	80.0
3.7478	452.358865131	73.0
3.7581	452.763467793	76.0
3.7683	453.162545309	62.0
3.7786	453.563929167	57.0
3.7888	453.959831834	51.0
3.799	454.354164242	55.0
3.8093	454.750775569	54.0
3.8195	455.141970878	71.0
3.8298	455.535426976	59.0
3.84	455.923510142	51.0
3.8502	456.310054064	48.0
3.8605	456.698831894	50.0
3.8707	457.082300677	50.0
3.881	457.467985597	49.0
3.8912	457.848403706	48.0
3.9014	458.227312973	55.0
3.9117	458.608412025	43.0
3.9219	458.98430689	38.0
3.9322	459.36237412	62.0
3.9424	459.735278565	51.0
3.9526	460.106703969	45.0
3.9629	460.480275908	55.0
3.9731	460.848746448	59.0
3.9834	461.219346447	57.0
3.9936	461.584885631	57.0
4.0038	461.948974986	40.0
4.0141	462.31516848	47.0
4.0243	462.676361333	55.0
4.0346	463.039641586	45.0
4.0448	463.39796098	62.0
4.055	463.754859182	46.0
4.0653	464.113819963	49.0
4.0755	464.467878872	53.0
4.0858	464.823983951	60.0
4.096	465.175226155	62.0
4.1062	465.525075235	57.0
4.1165	465.876946158	47.0
4.1267	466.224012025	57.0
4.137	466.573083648	56.0
4.1472	466.917388443	54.0
4.1574	467.260327631	67.0
4.1677	467.605248726	50.0
4.1779	467.945459672	60.0
4.1882	468.287636758	63.0
4.1984	468.625141165	40.0
4.2086	468.961306937	54.0
4.2189	469.299415473	55.0
4.2291	469.632906888	59.0
4.2394	469.968325611	46.0
4.2496	470.299163946	52.0
4.2598	470.628690085	62.0
4.2701	470.960120616	67.0
4.2803	471.28702522	71.0
4.2906	471.615819065	50.0
4.3008	471.940122989	61.0
4.311	472.263140635	64.0
4.3213	472.588025058	58.0
4.3315	472.908472947	60.0
4.3418	473.230772762	42.0
4.352	473.548671338	45.0
4.3622	473.86530904	55.0
4.3725	474.183776649	48.0
4.3827	474.497895349	54.0
4.393	474.813829399	49.0
4.4032	475.125449138	56.0
4.4134	475.435832907	53.0
4.4237	475.748010441	54.0
4.4339	476.055924961	43.0
4.4442	476.365618976	57.0
4.4544	476.671083892	56.0
4.4646	476.97533725	51.0
4.4749	477.281348944	49.0
4.4851	477.583181824	42.0
4.4954	477.886759051	40.0
4.5056	478.186190708	53.0
4.5158	478.484434737	59.0
4.5261	478.784402373	49.0
4.5363	479.080273731	51.0
4.5466	479.377854984	54.0
4.5568	479.671372546	54.0
4.567	479.963725937	47.0
4.5773	480.257768892	50.0
4.5875	480.547796474	49.0
4.5978	480.839500179	60.0
4.608	481.127220456	44.0
4.6182	481.413799555	46.0
4.6285	481.702034847	44.0
4.6387	481.986334075	68.0
4.649	482.27227632	57.0
4.6592	482.554313814	51.0
4.6694	482.83523267	53.0
4.6797	483.117775007	35.0
4.6899	483.396459022	48.0
4.7002	483.676753602	56.0
4.7104	483.953220554	58.0
4.7206	484.228590963	55.0
4.7309	484.505552787	37.0
4.7411	484.778732494	55.0
4.7514	485.053490957	36.0
4.7616	485.324497391	45.0
4.7718	485.59442894	42.0
4.7821	485.865920472	54.0
4.7923	486.133704589	52.0
4.8026	486.403036278	38.0
4.8128	486.668690046	44.0
4.823	486.933290158	43.0
4.8333	487.199419443	42.0
4.8435	487.461914537	53.0
4.8538	487.725926638	37.0
4.864	487.98633346	56.0
4.8742	488.245707437	43.0
4.8845	488.506580384	40.0
4.8947	488.763890919	43.0
4.905	489.022688499	41.0
4.9152	489.277952008	33.0
4.9254	489.532203072	49.0
4.9357	489.7879235	50.0
4.9459	490.040151877	42.0
4.9562	490.293837928	47.0
4.9664	490.54405971	45.0
4.9766	490.793289044	45.0
4.9869	491.04395872	44.0
4.9971	491.291205318	52.0
5.0074	491.539880798	37.0
5.0176	491.785160433	47.0
5.0278	492.029467221	35.0
5.0381	492.275185903	40.0
5.0483	492.517549116	40.0
5.0586	492.76131299	52.0
5.0688	493.00174809	50.0
5.079	493.241229558	39.0
5.0893	493.482095034	37.0
5.0995	493.719671314	44.0
5.1098	493.958620591	44.0
5.12	494.194306841	44.0
5.1302	494.429058295	38.0
5.1405	494.66516642	52.0
5.1507	494.898050315	48.0
5.161	495.132280089	47.0
5.1712	495.363311283	54.0
5.1814	495.593426145	45.0
5.1917	495.824870882	50.0
5.2019	496.053155071	38.0
5.2122	496.282758557	33.0
5.2224	496.509226638	35.0
5.2326	496.734796485	43.0
5.2429	496.961669942	35.0
5.2531	497.185445274	43.0
5.2634	497.410513846	37.0
5.2736	497.632508941	46.0
5.2838	497.853623542	57.0
5.2941	498.076016006	34.0
5.3043	498.295371537	45.0
5.3146	498.515994763	53.0
5.3248	498.733605218	47.0
5.335	498.95035257	61.0
5.3453	499.168352544	43.0
5.3555	499.383375569	39.0
5.3658	499.599641251	55.0
5.376	499.812953667	38.0
5.3862	500.025420027	54.0
5.3965	500.239114269	40.0
5.4067	500.44989036	38.0
5.417	500.661884564	47.0
5.4272	500.870983831	36.0
5.4374	501.079253754	36.0
5.4477	501.288727306	52.0
5.4579	501.495340344	46.0
5.4682	501.703147436	45.0
5.4784	501.908116769	44.0
5.4886	502.112273139	39.0
5.4989	502.317609364	31.0
5.5091	502.520141574	40.0
5.5194	502.723844253	48.0
5.5296	502.924765224	37.0
5.5398	503.124889287	38.0
5.5501	503.326169903	35.0
5.5603	503.524701884	39.0
5.5706	503.724381219	48.0
5.5808	503.921333785	49.0
5.591	504.117505184	43.0
5.6013	504.314810293	53.0
5.6115	504.509421056	35.0
5.6218	504.70515651	32.0
5.632	504.898219053	41.0
5.6422	505.090515857	48.0
5.6525	505.283923979	47.0
5.6627	505.474690972	33.0
5.673	505.666560441	42.0
5.6832	505.855809793	40.0
5.6934	506.044308529	30.0
5.7037	506.233896635	27.0
5.7139	506.420895775	24.0
5.7242	506.608975618	19.0
5.7344	506.794487092	38.0
5.7446	506.979262778	39.0
5.7549	507.165106315	37.0
5.7651	507.348412023	30.0
5.7754	507.532777088	34.0
5.7856	507.714624513	22.0
5.7958	507.895750681	34.0
5.8061	508.07792361	34.0
5.8163	508.257608834	23.0
5.8266	508.438332492	26.0
5.8368	508.616588236	29.0
5.847	508.794136968	30.0
5.8573	508.972711788	34.0
5.8675	509.148848037	25.0
5.8778	509.326002209	21.0
5.888	509.500737212	21.0
5.8982	509.674779167	22.0
5.9085	509.849826943	29.0
5.9187	510.022484313	28.0
5.929	510.196139501	23.0
5.9392	510.367423301	20.0
5.9494	510.538027742	20.0
5.9597	510.709618137	20.0
5.9699	510.878865339	27.0
5.9802	511.049090652	26.0
5.9904	511.216991414	20.0
6.0006	511.384226235	15.0
6.0109	511.552427536	20.0
6.0211	511.718331925	21.0
6.0314	511.885195106	16.0
6.0416	512.049779649	14.0
6.0518	512.213711403	14.0
6.0621	512.378590549	19.0
6.0723	512.54121815	9.0
6.0826	512.704785605	21.0
6.0928	512.866119426	8.0
6.103	513.026813354	14.0
6.1133	513.18843596	13.0
6.1235	513.347851492	8.0
6.1338	513.508188315	17.0
6.144	513.666335621	9.0
6.1542	513.823855672	13.0
6.1645	513.982286059	11.0
6.1747	514.138552964	9.0
6.185	514.295722963	11.0
6.1952	514.450746691	14.0
6.2054	514.605155552	13.0
6.2157	514.760456771	8.0
6.2259	514.913637237	8.0
6.2362	515.067702961	9.0
6.2464	515.219664805	8.0
6.2566	515.371023926	6.0
6.2669	515.523257779	11.0
6.2771	515.673412767	13.0
6.2874	515.824435529	6.0
6.2976	515.973395964	8.0
6.3078	516.121765581	4.0
6.3181	516.270992653	7.0
6.3283	516.41818192	9.0
6.3386	516.56622182	6.0
6.3488	516.712240127	3.0
6.359	516.857679286	6.0
6.3693	517.003958964	5.0
6.3795	517.148241085	4.0
6.3898	517.29335704	4.0
6.4	517.436491329	4.0
6.4102	517.579057909	4.0
6.4205	517.722448407	8.0
6.4307	517.863880802	6.0
6.441	518.006130562	6.0
6.4512	518.146437796	7.0
6.4614	518.286188534	9.0
6.4717	518.426746916	3.0
6.4819	518.565385871	2.0
6.4922	518.704826045	1.0
6.5024	518.842362062	5.0
6.5126	518.979352573	2.0
6.5229	519.117134777	2.0
6.5331	519.253035464	5.0
6.5434	519.389721546	4.0
6.5536	519.52454108	4.0
6.5638	519.658825882	2.0
6.5741	519.79388674	2.0
6.5843	519.927103244	5.0
6.5946	520.06108963	2.0
6.6048	520.193246333	4.0
6.615	520.324878867	2.0
6.6253	520.457272129	0.0
6.6355	520.587857465	3.0
6.6458	520.719197476	4.0
6.656	520.848743944	2.0
6.6662	520.977776594	3.0
6.6765	521.107554948	3.0
6.6867	521.235561084	3.0
6.697	521.36430699	1.0
6.7072	521.491294776	5.0
6.7174	521.617778894	2.0
6.7277	521.744993987	4.0
6.7379	521.870471864	1.0
6.7482	521.996674901	3.0
6.7584	522.121154543	2.0
6.7686	522.245140464	0.0
6.7789	522.369842923	1.0
6.7891	522.492842478	3.0
6.7994	522.61655287	0.0
6.8096	522.738573906	1.0
6.8198	522.860110973	2.0
6.8301	522.982350425	2.0
6.8403	523.102920608	1.0
6.8506	523.224187588	1.0
6.8608	523.343798578	2.0
6.871	523.462935158	0.0
6.8813	523.58276025	3.0
6.8915	523.700949043	2.0
6.9018	523.81982087	2.0
6.912	523.937069415	2.0
6.9222	524.053852921	3.0
6.9325	524.171311339	0.0
6.9427	524.287165777	4.0
6.953	524.403689759	0.0
6.9632	524.51862252	0.0
6.9734	524.633099427	1.0
6.9837	524.748237916	5.0
6.9939	524.861804105	1.0
7.0042	524.976026613	0.0
7.0144	525.08868933	0.0
7.0246	525.200905195	3.0
7.0349	525.313769576	2.0
7.0451	525.425092711	1.0
7.0554	525.537059203	1.0
7.0656	525.647496711	1.0
7.0758	525.757496193	1.0
7.0861	525.868131382	1.0
7.0963	525.977255766	1.0
7.1066	526.0870108	4.0
7.1168	526.195267049	0.0
7.127	526.303093924	2.0
7.1373	526.41154395	0.0
7.1475	526.518513011	2.0
7.1578	526.626100266	2.0
7.168	526.732218338	1.0
7.1782	526.837915517	0.0
7.1885	526.944223539	0.0
7.1987	527.049079847	2.0
7.209	527.154542138	1.0
7.2192	527.258564265	0.0
7.2294	527.362173812	1.0
7.2397	527.466382137	0.0
7.2499	527.56916742	2.0
7.2602	527.672546719	1.0
7.2704	527.774514298	0.0
7.2806	527.876077445	1.0
7.2909	527.978227544	1.0
7.3011	528.078982709	1.0
7.3114	528.180320156	2.0
7.3216	528.280273766	1.0
7.3318	528.379830933	0.0
7.3421	528.479963459	0.0
7.3523	528.578728601	2.0
7.3626	528.678064526	1.0
7.3728	528.776043945	1.0
7.383	528.873634751	2.0
7.3933	528.971789552	1.0
7.4035	529.068603978	0.0
7.4138	529.165977912	2.0
7.424	529.262022133	1.0
7.4342	529.357685417	1.0
7.4445	529.453901556	1.0
7.4547	529.548803793	1.0
7.465	529.644254487	1.0
7.4752	529.738401732	0.0
7.4854	529.832175564	1.0
7.4957	529.926491331	0.0
7.5059	530.019519148	1.0
7.5162	530.113084589	1.0
7.5264	530.205372326	0.0
7.5366	530.297294024	3.0
7.5469	530.389746954	0.0
7.5571	530.480937372	0.0
7.5674	530.572654796	0.0
7.5776	530.663119751	1.0
7.5878	530.753225898	1.0
7.5981	530.843852784	1.0
7.6083	530.933242094	0.0
7.6186	531.023148	0.0
7.6288	531.111826176	2.0
7.639	531.20015263	1.0
7.6493	531.288989538	1.0
7.6595	531.376613313	0.0
7.6698	531.464743482	0.0
7.68	531.551670169	1.0
7.6902	531.638252081	0.0
7.7005	531.725334366	2.0
7.7107	531.811227478	0.0
7.721	531.897616982	1.0
7.7312	531.982826774	0.0
7.7414	532.067698601	1.0
7.7517	532.153060917	0.0
7.7619	532.237257548	1.0
7.7722	532.321940767	1.0
7.7824	532.405467575	0.0
7.7926	532.488663092	2.0
7.8029	532.572339412	1.0
7.8131	532.65487307	1.0
7.8234	532.737883705	0.0
7.8336	532.819760769	0.0
7.8438	532.901313086	3.0
7.8541	532.983336709	2.0
7.8643	533.064240239	0.0
7.8746	533.145611325	1.0
7.8848	533.225871229	1.0
7.895	533.305812801	2.0
7.9053	533.386216369	2.0
7.9155	533.465521968	2.0
7.9258	533.545285889	7.0
7.936	533.623960574	2.0
7.9462	533.702323215	0.0
7.9565	533.781138727	4.0
7.9667	533.858877955	0.0
7.977	533.937066453	1.0
7.9872	534.014187229	0.0
7.9974	534.091002124	0.0
8.0077	534.168260945	0.0
8.0179	534.244464741	0.0
8.0282	534.321108932	0.0
