TL-DOS Lehrstuhlversuch
detector=R1407601
job_number=2015-11-16-001
irradiation_dose [mSv]=0.06

[BEGIN DATA]
time [sec] 	 temperature [K] 	 photoncount 
0.0	218.404624247	0.0
0.0102	219.451343929	0.0
0.0205	220.505202692	0.0
0.0307	221.545746381	0.0
0.041	222.593387029	1.0
0.0512	223.627791166	0.0
0.0614	224.659154011	2.0
0.0717	225.697551197	1.0
0.0819	226.72282866	2.0
0.0922	227.755098959	0.0
0.1024	228.774326946	1.0
0.1126	229.79055826	1.0
0.1229	230.813720712	0.0
0.1331	231.823955926	1.0
0.1434	232.84108138	2.0
0.1536	233.845355872	0.0
0.1638	234.846677657	0.0
0.1741	235.854828889	1.0
0.1843	236.850242544	0.0
0.1946	237.852445351	1.0
0.2048	238.841985736	0.0
0.215	239.828616734	0.0
0.2253	240.821976983	1.0
0.2355	241.802786532	1.0
0.2458	242.790285627	0.0
0.256	243.765308075	0.0
0.2662	244.737463822	0.0
0.2765	245.716250091	1.0
0.2867	246.682669797	0.0
0.297	247.655680903	0.0
0.3072	248.616398413	0.0
0.3174	249.57429128	0.0
0.3277	250.53871739	0.0
0.3379	251.490958372	2.0
0.3482	252.44969405	0.0
0.3584	253.396316494	0.0
0.3686	254.340155738	0.0
0.3789	255.290432373	0.0
0.3891	256.228702652	0.0
0.3994	257.173372341	0.0
0.4096	258.106106515	1.0
0.4198	259.036098321	1.0
0.4301	259.972433074	0.0
0.4403	260.89693762	0.0
0.4506	261.827747688	0.0
0.4608	262.746797351	0.0
0.471	263.663144881	0.0
0.4813	264.585742298	0.0
0.4915	265.496683074	0.0
0.5018	266.413836861	0.0
0.512	267.319402785	1.0
0.5222	268.222306219	0.0
0.5325	269.131367846	1.0
0.5427	270.028943851	0.0
0.553	270.932641713	1.0
0.5632	271.824921723	0.0
0.5734	272.714578306	0.0
0.5837	273.610302731	0.0
0.5939	274.494710045	0.0
0.6042	275.3851494	0.0
0.6144	276.264338418	0.0
0.6246	277.140942499	0.0
0.6349	278.023525398	0.0
0.6451	278.894957225	1.0
0.6554	279.772332593	0.0
0.6656	280.638622683	1.0
0.6758	281.50236576	0.0
0.6861	282.371999938	0.0
0.6963	283.230646645	0.0
0.7066	284.095149694	2.0
0.7168	284.948730101	0.0
0.727	285.799800863	0.0
0.7373	286.656676295	0.0
0.7475	287.502725458	0.0
0.7578	288.354545042	0.0
0.768	289.195602235	0.0
0.7782	290.034186602	0.0
0.7885	290.878490478	1.0
0.7987	291.71212692	0.0
0.809	292.551449124	0.0
0.8192	293.380166835	0.0
0.8294	294.206448001	1.0
0.8397	295.038364762	0.0
0.8499	295.859770596	0.0
0.8602	296.686778773	0.0
0.8704	297.50333804	0.0
0.8806	298.31749651	0.0
0.8909	299.137207893	0.0
0.9011	299.946562558	0.0
0.9114	300.761437372	0.0
0.9216	301.566016577	0.0
0.9318	302.368230207	0.0
0.9421	303.175915281	0.0
0.9523	303.973395585	0.0
0.9626	304.77631505	0.0
0.9728	305.569089957	0.0
0.983	306.359533995	0.0
0.9933	307.155369203	0.0
1.0035	307.941149359	0.0
1.0138	308.732288877	0.0
1.024	309.51343267	0.0
1.0342	310.292279792	0.0
1.0445	311.076438989	1.0
1.0547	311.850690655	0.0
1.065	312.630223053	1.0
1.0752	313.399906378	0.0
1.0854	314.167326728	1.0
1.0957	314.939981216	0.0
1.1059	315.702873531	0.0
1.1162	316.470969102	0.0
1.1264	317.2293601	0.0
1.1366	317.985521323	0.0
1.1469	318.746839893	0.0
1.1571	319.498539515	0.0
1.1674	320.255366053	1.0
1.1776	321.002630398	2.0
1.1878	321.747697682	0.0
1.1981	322.497846648	1.0
1.2083	323.238517788	0.0
1.2186	323.984240626	0.0
1.2288	324.720541562	0.0
1.239	325.45467767	0.0
1.2493	326.193820905	0.0
1.2595	326.923625367	0.0
1.2698	327.658407412	0.0
1.28	328.383905786	1.0
1.2902	329.107271095	0.0
1.3005	329.835570068	0.0
1.3107	330.554667282	1.0
1.321	331.278669049	0.0
1.3312	331.993523352	1.0
1.3414	332.706275883	0.0
1.3517	333.423889695	0.0
1.3619	334.13243675	0.0
1.3722	334.845816403	1.0
1.3824	335.550182796	0.0
1.3926	336.252478254	0.0
1.4029	336.959563671	0.0
1.4131	337.657715353	0.0
1.4234	338.360628732	0.0
1.4336	339.054661089	2.0
1.4438	339.746652894	1.0
1.4541	340.443364382	2.0
1.4643	341.131273206	0.0
1.4746	341.823873866	0.0
1.4848	342.507723801	0.0
1.495	343.189563121	0.0
1.5053	343.876052881	0.0
1.5155	344.553869124	0.0
1.5258	345.236308367	2.0
1.536	345.910125269	0.0
1.5462	346.581961057	2.0
1.5565	347.258379055	2.0
1.5667	347.926250788	0.0
1.577	348.598677696	2.0
1.5872	349.262608766	3.0
1.5974	349.924587786	0.0
1.6077	350.591081789	2.0
1.6179	351.249154914	1.0
1.6282	351.911716382	1.0
1.6384	352.565906657	0.0
1.6486	353.218173522	0.0
1.6589	353.874889129	1.0
1.6691	354.523307404	1.0
1.6794	355.176148172	1.0
1.6896	355.820740564	1.0
1.6998	356.463437765	0.0
1.7101	357.110518439	2.0
1.7203	357.749423513	3.0
1.7306	358.392686197	0.0
1.7408	359.02782152	1.0
1.751	359.661089458	2.0
1.7613	360.298676556	0.0
1.7715	360.928208003	1.0
1.7818	361.562033126	1.0
1.792	362.187850129	2.0
1.8022	362.811827143	2.0
1.8125	363.44005995	1.0
1.8227	364.060355293	2.0
1.833	364.684881319	0.0
1.8432	365.301516714	0.0
1.8534	365.916339115	1.0
1.8637	366.535354871	1.0
1.8739	367.146549617	2.0
1.8842	367.761912975	3.0
1.8944	368.36950147	1.0
1.9046	368.975303569	0.0
1.9149	369.585237502	4.0
1.9251	370.187465168	2.0
1.9354	370.793800288	1.0
1.9456	371.392474613	0.0
1.9558	371.989388751	4.0
1.9661	372.590374103	2.0
1.9763	373.18376625	1.0
1.9866	373.781205589	2.0
1.9968	374.371096526	0.0
2.007	374.959253103	1.0
2.0173	375.551421161	7.0
2.0275	376.136107419	2.0
2.0378	376.72478149	2.0
2.048	377.306017905	4.0
2.0582	377.885545404	0.0
2.0685	378.469025532	1.0
2.0787	379.045133627	2.0
2.089	379.625171029	5.0
2.0992	380.197879896	4.0
2.1094	380.768904919	4.0
2.1197	381.34382458	5.0
2.1299	381.911480367	4.0
2.1402	382.483007811	6.0
2.1504	383.047314241	1.0
2.1606	383.609961531	5.0
2.1709	384.176446319	4.0
2.1811	384.735773804	3.0
2.1914	385.298916144	8.0
2.2016	385.854943412	10.0
2.2118	386.409335882	11.0
2.2221	386.967509549	5.0
2.2323	387.51863092	6.0
2.2426	388.073511178	5.0
2.2528	388.62138075	4.0
2.263	389.16763951	7.0
2.2733	389.717623991	8.0
2.2835	390.260659644	8.0
2.2938	390.807399034	7.0
2.304	391.347230597	8.0
2.3142	391.885474979	7.0
2.3245	392.427390421	10.0
2.3347	392.962458984	8.0
2.345	393.501176945	11.0
2.3552	394.033088426	7.0
2.3654	394.563436013	6.0
2.3757	395.097400801	11.0
2.3859	395.624619162	16.0
2.3962	396.15543338	8.0
2.4064	396.679540978	11.0
2.4166	397.202107627	10.0
2.4269	397.728238406	6.0
2.4371	398.247721739	15.0
2.4474	398.770748173	8.0
2.4576	399.287166382	10.0
2.4678	399.80206625	9.0
2.4781	400.320477957	9.0
2.4883	400.832339746	10.0
2.4986	401.347692653	14.0
2.5088	401.856534287	16.0
2.519	402.363879856	8.0
2.5293	402.874685741	8.0
2.5395	403.379037803	12.0
2.5498	403.886829765	18.0
2.56	404.388205983	11.0
2.5702	404.888108085	14.0
2.5805	405.391419736	14.0
2.5907	405.888372251	8.0
2.601	406.388714197	9.0
2.6112	406.882734527	8.0
2.6214	407.375302369	16.0
2.6317	407.871229736	17.0
2.6419	408.360891265	10.0
2.6522	408.853892496	7.0
2.6624	409.34066486	14.0
2.6726	409.826006045	10.0
2.6829	410.314657467	6.0
2.6931	410.797134978	8.0
2.7034	411.282903195	4.0
2.7136	411.762533929	10.0
2.7238	412.240754482	15.0
2.7341	412.722236707	11.0
2.7443	413.1976356	4.0
2.7546	413.67627692	9.0
2.7648	414.148870803	9.0
2.775	414.620075194	10.0
2.7853	415.094493403	17.0
2.7955	415.562917533	8.0
2.8058	416.034536517	10.0
2.816	416.500196789	5.0
2.8262	416.964487955	10.0
2.8365	417.431945788	5.0
2.8467	417.893497482	14.0
2.857	418.358197159	7.0
2.8672	418.817025546	8.0
2.8774	419.274504913	8.0
2.8877	419.735104488	3.0
2.8979	420.189884576	6.0
2.9082	420.647766461	4.0
2.9184	421.099863195	6.0
2.9286	421.550630703	11.0
2.9389	422.00447264	6.0
2.9491	422.45258047	7.0
2.9594	422.903744589	7.0
2.9696	423.349208434	8.0
2.9798	423.793362554	4.0
2.9901	424.240545997	8.0
3.0003	424.682079461	9.0
3.0106	425.126624374	8.0
3.0208	425.565552644	8.0
3.031	426.003190404	12.0
3.0413	426.443813042	9.0
3.0515	426.878868594	12.0
3.0618	427.316891414	10.0
3.072	427.749379994	10.0
3.0822	428.180596998	5.0
3.0925	428.614755089	9.0
3.1027	429.043427769	6.0
3.113	429.475024183	4.0
3.1232	429.901167554	7.0
3.1334	430.326058003	5.0
3.1437	430.753846389	8.0
3.1539	431.176229844	8.0
3.1642	431.601494137	9.0
3.1744	432.02138539	11.0
3.1846	432.440042105	9.0
3.1949	432.861554239	10.0
3.2051	433.27774074	10.0
3.2154	433.696765813	6.0
3.2256	434.110496676	15.0
3.2358	434.523011113	10.0
3.2461	434.938339076	8.0
3.2563	435.348419541	12.0
3.2666	435.761296933	7.0
3.2768	436.168957787	8.0
3.287	436.575420062	11.0
3.2973	436.984654586	13.0
3.3075	437.388718599	11.0
3.3178	437.795538503	12.0
3.328	438.197218405	14.0
3.3382	438.597717312	6.0
3.3485	439.000947795	11.0
3.3587	439.399083625	18.0
3.369	439.799934915	16.0
3.3792	440.195721612	15.0
3.3894	440.590344642	13.0
3.3997	440.987659171	11.0
3.4099	441.379953795	13.0
3.4202	441.774924037	11.0
3.4304	442.164903992	20.0
3.4406	442.553737352	8.0
3.4509	442.945222723	12.0
3.4611	443.331761838	12.0
3.4714	443.720937316	8.0
3.4816	444.105195721	15.0
3.4918	444.488324354	19.0
3.5021	444.874066089	23.0
3.5123	445.254934136	13.0
3.5226	445.638399868	12.0
3.5328	446.017020667	7.0
3.543	446.394528268	12.0
3.5533	446.774610635	9.0
3.5635	447.149890816	9.0
3.5738	447.527730571	14.0
3.584	447.900796475	8.0
3.5942	448.272765514	11.0
3.6045	448.647271542	11.0
3.6147	449.017045841	12.0
3.625	449.38934216	10.0
3.6352	449.756934667	12.0
3.6454	450.123446402	8.0
3.6557	450.492457905	4.0
3.6659	450.856807098	8.0
3.6762	451.223641312	11.0
3.6864	451.585840725	6.0
3.6966	451.946975221	11.0
3.7069	452.310572811	13.0
3.7171	452.669576494	11.0
3.7274	453.031028738	9.0
3.7376	453.387914181	11.0
3.7478	453.743750331	11.0
3.7581	454.102013437	8.0
3.7683	454.455750036	16.0
3.7786	454.811899272	8.0
3.7888	455.163548708	10.0
3.799	455.514164246	12.0
3.8093	455.867171133	9.0
3.8195	456.215717923	6.0
3.8298	456.566641953	15.0
3.84	456.913132201	15.0
3.8502	457.25860372	11.0
3.8605	457.606431505	7.0
3.8707	457.949864627	8.0
3.881	458.295640113	6.0
3.8912	458.637046866	11.0
3.9014	458.977449837	10.0
3.9117	459.320174503	6.0
3.9219	459.658568983	9.0
3.9322	459.99927146	6.0
3.9424	460.3356693	8.0
3.9526	460.671078085	12.0
3.9629	461.008774502	6.0
3.9731	461.342204263	6.0
3.9834	461.67790816	7.0
3.9936	462.009370576	13.0
4.0038	462.339858446	6.0
4.0141	462.672600386	8.0
4.0243	463.001138268	7.0
4.0346	463.33191692	5.0
4.0448	463.65851632	14.0
4.055	463.984155473	8.0
4.0653	464.312015625	10.0
4.0755	464.635733398	7.0
4.0858	464.961659067	6.0
4.096	465.283466798	13.0
4.1062	465.60432837	16.0
4.1165	465.927378357	8.0
4.1267	466.24634674	10.0
4.137	466.567490624	14.0
4.1472	466.884576988	6.0
4.1574	467.200731073	6.0
4.1677	467.519041467	8.0
4.1779	467.833330138	8.0
4.1882	468.149762395	4.0
4.1984	468.462196659	3.0
4.2086	468.773712324	11.0
4.2189	469.08735266	8.0
4.2291	469.397030279	6.0
4.2394	469.708820033	8.0
4.2496	470.016670451	4.0
4.2598	470.323615747	8.0
4.2701	470.632654542	4.0
4.2803	470.937788758	13.0
4.2906	471.245004122	14.0
4.3008	471.548337946	8.0
4.311	471.850779926	14.0
4.3213	472.155284691	14.0
4.3315	472.455942164	9.0
4.3418	472.75865025	4.0
4.352	473.057533744	4.0
4.3622	473.355538478	12.0
4.3725	473.655575734	8.0
4.3827	473.951822142	13.0
4.393	474.250089079	5.0
4.4032	474.544587535	9.0
4.4134	474.838220125	8.0
4.4237	475.133855416	13.0
4.4339	475.425755477	2.0
4.4442	475.719646422	8.0
4.4544	476.009824175	8.0
4.4646	476.299148766	12.0
4.4749	476.590446675	10.0
4.4851	476.878064155	12.0
4.4954	477.16764331	5.0
4.5056	477.453563751	8.0
4.5158	477.738643547	9.0
4.5261	478.02566771	3.0
4.5363	478.30906544	10.0
4.5466	478.594396065	13.0
4.5568	478.876121655	6.0
4.567	479.157018933	10.0
4.5773	479.439832051	7.0
4.5875	479.719071942	7.0
4.5978	480.000216369	6.0
4.608	480.277808652	9.0
4.6182	480.554584775	9.0
4.6285	480.833248631	4.0
4.6387	481.108391683	5.0
4.649	481.38541133	10.0
4.6592	481.658930947	9.0
4.6694	481.931646379	7.0
4.6797	482.206221847	9.0
4.6899	482.477328167	4.0
4.7002	482.75028355	2.0
4.7104	483.019790253	9.0
4.7206	483.288504569	3.0
4.7309	483.559051633	5.0
4.7411	483.826180445	3.0
4.7514	484.095131192	7.0
4.7616	484.360683856	5.0
4.7718	484.625455758	4.0
4.7821	484.89203352	5.0
4.7923	485.15524318	11.0
4.8026	485.420248044	13.0
4.8128	485.681904681	8.0
4.823	485.94279201	9.0
4.8333	486.205458704	4.0
4.8435	486.464806712	11.0
4.8538	486.725923586	11.0
4.864	486.983741355	9.0
4.8742	487.240801103	5.0
4.8845	487.499614111	6.0
4.8947	487.755157122	5.0
4.905	488.012443047	5.0
4.9152	488.26647827	8.0
4.9254	488.519766594	2.0
4.9357	488.774782454	7.0
4.9459	489.026576293	9.0
4.9562	489.280087474	7.0
4.9664	489.530395646	10.0
4.9766	489.779967878	10.0
4.9869	490.031242299	7.0
4.9971	490.279341972	7.0
5.0074	490.529133791	7.0
5.0176	490.775769594	4.0
5.0278	491.021680252	7.0
5.0381	491.269268128	11.0
5.0483	491.513727832	5.0
5.0586	491.759854858	6.0
5.0688	492.002872169	8.0
5.079	492.245174976	5.0
5.0893	492.489130392	8.0
5.0995	492.730003532	3.0
5.1098	492.972519531	9.0
5.12	493.211971439	7.0
5.1302	493.450719326	9.0
5.1405	493.691095577	7.0
5.1507	493.928434772	6.0
5.161	494.167392723	7.0
5.1712	494.403331538	3.0
5.1814	494.638576661	3.0
5.1917	494.875426256	8.0
5.2019	495.109283355	9.0
5.2122	495.34473546	5.0
5.2224	495.577212724	3.0
5.2326	495.809006472	4.0
5.2429	496.042381154	4.0
5.2531	496.272807243	7.0
5.2634	496.504804937	7.0
5.2736	496.733871436	9.0
5.2838	496.962264447	8.0
5.2941	497.192215197	4.0
5.3043	497.419260614	5.0
5.3146	497.647854579	5.0
5.3248	497.873560353	9.0
5.335	498.09860252	3.0
5.3453	498.325179572	7.0
5.3555	498.548893917	5.0
5.3658	498.774134089	6.0
5.376	498.996528445	12.0
5.3862	499.21826893	8.0
5.3965	499.441521781	8.0
5.4067	499.661953924	10.0
5.417	499.883889509	11.0
5.4272	500.103021029	2.0
5.4374	500.321508272	4.0
5.4477	500.541485693	3.0
5.4579	500.758683789	8.0
5.4682	500.97736327	4.0
5.4784	501.193279826	6.0
5.4886	501.408561556	9.0
5.4989	501.625311602	10.0
5.5091	501.839323099	5.0
5.5194	502.054794247	11.0
5.5296	502.267543006	11.0
5.5398	502.479666253	5.0
5.5501	502.693236273	2.0
5.5603	502.904107924	5.0
5.5706	503.11641781	5.0
5.5808	503.326045248	10.0
5.591	503.535056352	8.0
5.6013	503.745493002	8.0
5.6115	503.953270871	4.0
5.6218	504.162465875	6.0
5.632	504.369017786	4.0
5.6422	504.574962406	6.0
5.6525	504.782311657	4.0
5.6627	504.987041135	6.0
5.673	505.193166957	2.0
5.6832	505.396688464	4.0
5.6934	505.599611589	9.0
5.7037	505.803918738	4.0
5.7139	506.005644549	6.0
5.7242	506.208746218	4.0
5.7344	506.40928178	5.0
5.7446	506.60922774	4.0
5.7549	506.810537418	5.0
5.7651	507.009303631	7.0
5.7754	507.209425515	3.0
5.7856	507.407018941	5.0
5.7958	507.604031416	6.0
5.8061	507.8023876	4.0
5.8163	507.998237635	9.0
5.8266	508.195423453	5.0
5.8368	508.390117908	7.0
5.847	508.584239934	4.0
5.8573	508.779685957	1.0
5.8675	508.972662599	0.0
5.8778	509.166955426	8.0
5.888	509.358793442	4.0
5.8982	509.550067428	4.0
5.9085	509.742645985	3.0
5.9187	509.932791391	3.0
5.929	510.124233671	7.0
5.9392	510.313257156	2.0
5.9494	510.501724886	8.0
5.9597	510.691478047	3.0
5.9699	510.878833755	3.0
5.9802	511.06746731	4.0
5.9904	511.253717557	4.0
6.0006	511.439420202	2.0
6.0109	511.62638942	4.0
6.0211	511.810996359	3.0
6.0314	511.996862396	6.0
6.0416	512.180380093	2.0
6.0518	512.363358222	4.0
6.0621	512.54758434	3.0
6.0723	512.729482838	2.0
6.0826	512.912621962	4.0
6.0928	513.093447198	5.0
6.103	513.273740782	3.0
6.1133	513.455264047	1.0
6.1235	513.63449384	3.0
6.1338	513.814946058	3.0
6.144	513.993118335	0.0
6.1542	514.170766762	0.0
6.1645	514.349626828	4.0
6.1747	514.526227069	0.0
6.185	514.704031802	3.0
6.1952	514.879590044	3.0
6.2054	515.05463212	1.0
6.2157	515.230868059	2.0
6.2259	515.40487733	1.0
6.2362	515.580073418	3.0
6.2464	515.753055976	1.0
6.2566	515.925529942	2.0
6.2669	516.099180254	0.0
6.2771	516.270636566	3.0
6.2874	516.443262284	2.0
6.2976	516.613706946	4.0
6.3078	516.783650478	0.0
6.3181	516.954753098	3.0
6.3283	517.123693907	1.0
6.3386	517.293786965	2.0
6.3488	517.461730967	1.0
6.359	517.62918119	0.0
6.3693	517.797773496	5.0
6.3795	517.964235708	4.0
6.3898	518.131833264	1.0
6.4	518.297313293	0.0
6.4102	518.462306788	3.0
6.4205	518.62842561	1.0
6.4307	518.792445589	1.0
6.441	518.957584255	1.0
6.4512	519.120636462	2.0
6.4614	519.283209273	6.0
6.4717	519.4468909	1.0
6.4819	519.608504477	2.0
6.4922	519.771220329	1.0
6.5024	519.931880332	2.0
6.5126	520.092067973	2.0
6.5229	520.253348163	2.0
6.5331	520.412590644	5.0
6.5434	520.572919227	0.0
6.5536	520.731222125	0.0
6.5638	520.889059589	1.0
6.5741	521.047973574	0.0
6.5843	521.204879746	4.0
6.5946	521.362856085	0.0
6.6048	521.518836458	0.0
6.615	521.674358228	1.0
6.6253	521.830940723	2.0
6.6355	521.985544862	0.0
6.6458	522.141203468	1.0
6.656	522.294895392	3.0
6.6662	522.44813544	1.0
6.6765	522.602420652	1.0
6.6867	522.754756533	2.0
6.697	522.908131411	1.0
6.7072	523.05956846	0.0
6.7174	523.210560263	0.0
6.7277	523.362581895	2.0
6.7379	523.512682796	0.0
6.7482	523.663807451	0.0
6.7584	523.813022707	2.0
6.7686	523.96179925	1.0
6.7789	524.111590513	1.0
6.7891	524.259489225	1.0
6.7994	524.408396671	3.0
6.8096	524.555422731	0.0
6.8198	524.702016515	1.0
6.8301	524.849610131	0.0
6.8403	524.995338963	0.0
6.8506	525.142061728	0.0
6.8608	525.286930712	0.0
6.871	525.43137376	0.0
6.8813	525.576801973	2.0
6.8915	525.720392759	1.0
6.9018	525.864962897	1.0
6.912	526.007706451	0.0
6.9222	526.150030318	0.0
6.9325	526.293324896	2.0
6.9427	526.434809006	0.0
6.953	526.577258098	0.0
6.9632	526.717907405	0.0
6.9734	526.858143183	1.0
6.9837	526.99933543	0.0
6.9939	527.13874377	1.0
7.0042	527.279102936	0.0
7.0144	527.417688721	1.0
7.0246	527.555867045	1.0
7.0349	527.694987805	0.0
7.0451	527.832350831	1.0
7.0554	527.970650732	0.0
7.0656	528.10720327	0.0
7.0758	528.243354325	0.0
7.0861	528.38043399	1.0
7.0963	528.515781708	0.0
7.1066	528.652052557	2.0
7.1168	528.78660168	0.0
7.127	528.920755209	1.0
7.1373	529.055823724	0.0
7.1475	529.189185703	3.0
7.1578	529.323457268	2.0
7.168	529.456032368	0.0
7.1782	529.588217678	0.0
7.1885	529.721304549	1.0
7.1987	529.852709922	1.0
7.209	529.985011536	1.0
7.2192	530.115641574	0.0
7.2294	530.245887542	4.0
7.2397	530.377021843	0.0
7.2499	530.506499316	0.0
7.2602	530.636859881	0.0
7.2704	530.765573394	0.0
7.2806	530.893908472	1.0
7.2909	531.02311885	1.0
7.3011	531.150696708	0.0
7.3114	531.279144702	0.0
7.3216	531.405969809	2.0
7.3318	531.532422032	0.0
7.3421	531.659736714	1.0
7.3523	531.785442827	1.0
7.3626	531.91200631	1.0
7.3728	532.036970715	1.0
7.383	532.161567708	1.0
7.3933	532.287014506	0.0
7.4035	532.410876335	0.0
7.4138	532.535582956	1.0
7.424	532.658713959	1.0
7.4342	532.78148294	0.0
7.4445	532.905089259	1.0
7.4547	533.027133862	0.0
7.465	533.150010863	2.0
7.4752	533.271335363	0.0
7.4854	533.392303152	0.0
7.4957	533.514095993	1.0
7.5059	533.634350032	1.0
7.5162	533.755424256	0.0
7.5264	533.874968756	3.0
7.5366	533.994161779	1.0
7.5469	534.11416775	0.0
7.5571	534.232657495	1.0
7.5674	534.351955391	2.0
7.5776	534.469746007	1.0
7.5878	534.587190302	2.0
7.5981	534.705435618	1.0
7.6083	534.822186953	0.0
7.6186	534.939734583	1.0
7.6288	535.055797046	1.0
7.639	535.17151827	0.0
7.6493	535.288028762	0.0
7.6595	535.403067192	0.0
7.6698	535.518890234	1.0
7.68	535.6332499	1.0
7.6902	535.747273332	0.0
7.7005	535.862074453	1.0
7.7107	535.975425109	1.0
7.721	536.089548865	1.0
7.7312	536.202230715	0.0
7.7414	536.314581264	0.0
7.7517	536.427698093	0.0
7.7619	536.539385737	0.0
7.7722	536.651835139	1.0
7.7824	536.762863789	0.0
7.7926	536.873565999	1.0
7.8029	536.985023246	0.0
7.8131	537.095072277	1.0
7.8234	537.205871889	1.0
7.8336	537.315271594	0.0
7.8438	537.424349648	1.0
7.8541	537.534171662	1.0
7.8643	537.64260612	0.0
7.8746	537.751780148	0.0
7.8848	537.859574807	2.0
7.895	537.967052534	0.0
7.9053	538.075263306	1.0
7.9155	538.182106879	0.0
7.9258	538.289679172	2.0
7.936	538.395892332	0.0
7.9462	538.501793212	0.0
7.9565	538.608416381	1.0
7.9667	538.71369241	2.0
7.977	538.819686467	1.0
7.9872	538.924341333	0.0
7.9974	539.028688499	2.0
8.0077	539.133747357	0.0
8.0179	539.23747884	1.0
8.0282	539.341917817	0.0
8.0384	539.44503725	0.0
8.0486	539.547853497	0.0
8.0589	539.651370996	0.0
8.0691	539.753580593	1.0
8.0794	539.856487304	2.0
8.0896	539.958093831	0.0
8.0998	540.059401621	0.0
8.1101	540.161400374	0.0
8.1203	540.262110414	0.0
8.1306	540.363507341	2.0
8.1408	540.463623158	0.0
8.151	540.563444622	0.0
