TL-DOS Lehrstuhlversuch
detector=R1406804
job_number=2015-11-02-004
irradiation_dose [mSv]=0.2

[BEGIN DATA]
time [sec] 	 temperature [K] 	 photoncount 
0.0	68.7857111434	0.0
0.0102	71.2937540268	0.0
0.0205	73.8131048502	0.0
0.0307	76.2949130342	1.0
0.041	78.7879108745	2.0
0.0512	81.24375878	1.0
0.0614	83.6867912119	0.0
0.0717	86.140838473	0.0
0.0819	88.5583162296	1.0
0.0922	90.9866935977	1.0
0.1024	93.3788839867	2.0
0.1126	95.7585910892	1.0
0.1229	98.1490275079	0.0
0.1331	100.503842332	0.0
0.1434	102.869274242	2.0
0.1536	105.199457168	2.0
0.1638	107.517480383	1.0
0.1741	109.845954803	1.0
0.1843	112.139730968	0.0
0.1946	114.443849015	1.0
0.2048	116.71363176	2.0
0.215	118.971569984	3.0
0.2253	121.239688508	1.0
0.2355	123.474008184	1.0
0.2458	125.718401672	0.0
0.256	127.929349856	3.0
0.2662	130.128760539	1.0
0.2765	132.33808764	0.0
0.2867	134.514491987	1.0
0.297	136.700709024	0.0
0.3072	138.854347685	0.0
0.3174	140.996747907	0.0
0.3277	143.148807505	0.0
0.3379	145.268797733	1.0
0.3482	147.398346298	0.0
0.3584	149.496160945	0.0
0.3686	151.583028462	0.0
0.3789	153.679304977	0.0
0.3891	155.744343384	0.0
0.3994	157.818692369	0.0
0.4096	159.862130005	0.0
0.4198	161.894904267	0.0
0.4301	163.93684364	0.0
0.4403	165.948354621	0.0
0.4506	167.968934844	0.0
0.4608	169.959404962	0.0
0.471	171.939488111	0.0
0.4813	173.928498803	0.0
0.4915	175.887869832	0.0
0.5018	177.85607502	0.0
0.512	179.794950581	0.0
0.5222	181.723708412	0.0
0.5325	183.661162377	0.0
0.5427	185.569744961	0.0
0.553	187.486932716	0.0
0.5632	189.375551093	0.0
0.5734	191.254313998	0.0
0.5837	193.141547626	0.0
0.5939	195.000658244	0.0
0.6042	196.868150979	0.0
0.6144	198.707814876	0.0
0.6246	200.537878763	0.0
0.6349	202.376193806	0.0
0.6451	204.187114808	0.0
0.6554	206.006200657	1.0
0.6656	207.798179014	0.0
0.6758	209.5808062	0.0
0.6861	211.371470666	0.0
0.6963	213.135451166	0.0
0.7066	214.907384874	0.0
0.7168	216.652913737	1.0
0.727	218.389333819	0.0
0.7373	220.133582848	0.0
0.7475	221.851839581	0.0
0.7578	223.577843369	0.0
0.768	225.278126745	0.0
0.7782	226.969537448	0.0
0.7885	228.668574165	0.0
0.7987	230.342292327	0.0
0.809	232.023556734	0.0
0.8192	233.679767423	0.0
0.8294	235.327335425	0.0
0.8397	236.982331769	0.0
0.8499	238.612665835	0.0
0.8602	240.250350541	0.0
0.8704	241.863630942	0.0
0.8806	243.46849268	1.0
0.8909	245.080590213	0.0
0.9011	246.668664733	0.0
0.9114	248.263899358	0.0
0.9216	249.835362257	0.0
0.9318	251.398624712	0.0
0.9421	252.968935404	0.0
0.9523	254.515845779	0.0
0.9626	256.069730663	0.0
0.9728	257.600460003	0.0
0.983	259.123201462	1.0
0.9933	260.65280846	0.0
1.0035	262.159621697	1.0
1.0138	263.673228658	0.0
1.024	265.164280285	0.0
1.0342	266.647551083	0.0
1.0445	268.137509461	0.0
1.0547	269.605264909	1.0
1.065	271.079637983	0.0
1.0752	272.532040374	0.0
1.0854	273.976863622	0.0
1.0957	275.428201102	1.0
1.1059	276.85791117	0.0
1.1162	278.29406733	0.0
1.1264	279.708822305	1.0
1.1366	281.116194594	0.0
1.1469	282.529912261	0.0
1.1571	283.922563115	0.0
1.1674	285.321492973	0.0
1.1776	286.699576382	0.0
1.1878	288.07046847	0.0
1.1981	289.447541459	0.0
1.2083	290.804093704	0.0
1.2186	292.166762196	2.0
1.2288	293.509124595	0.0
1.239	294.844482078	1.0
1.2493	296.185860248	0.0
1.2595	297.507249587	1.0
1.2698	298.834596636	1.0
1.28	300.142163942	1.0
1.2902	301.442907905	1.0
1.3005	302.749516494	0.0
1.3107	304.036654378	2.0
1.321	305.329595544	2.0
1.3312	306.603269673	0.0
1.3414	307.870297325	1.0
1.3517	309.143037588	0.0
1.3619	310.396811842	0.0
1.3722	311.656238952	0.0
1.3824	312.896898442	0.0
1.3926	314.131083737	0.0
1.4029	315.370833567	0.0
1.4131	316.592109003	0.0
1.4234	317.818890768	2.0
1.4336	319.027391385	0.0
1.4438	320.229585623	0.0
1.4541	321.437200159	1.0
1.4643	322.626819171	0.0
1.4746	323.821801784	3.0
1.4848	324.998977111	4.0
1.495	326.170009525	2.0
1.5053	327.346321739	2.0
1.5155	328.505104887	2.0
1.5258	329.669112607	0.0
1.536	330.81577462	1.0
1.5462	331.95645295	0.0
1.5565	333.102274222	1.0
1.5667	334.231020797	2.0
1.577	335.364856518	1.0
1.5872	336.481796146	1.0
1.5974	337.592907193	3.0
1.6077	338.709027873	2.0
1.6179	339.808516445	0.0
1.6282	340.91296225	4.0
1.6384	342.000949921	3.0
1.6486	343.083260092	2.0
1.6589	344.170450043	1.0
1.6691	345.241439004	5.0
1.6794	346.317256701	2.0
1.6896	347.377042873	1.0
1.6998	348.43129871	4.0
1.7101	349.490307839	2.0
1.7203	350.53353592	2.0
1.7306	351.581467573	3.0
1.7408	352.613783251	5.0
1.751	353.640711944	2.0
1.7613	354.672270721	4.0
1.7715	355.688457506	3.0
1.7818	356.709225943	4.0
1.792	357.714783184	5.0
1.8022	358.715093075	5.0
1.8125	359.719913034	8.0
1.8227	360.709759455	2.0
1.833	361.704068769	8.0
1.8432	362.683561172	7.0
1.8534	363.657942241	6.0
1.8637	364.636716473	9.0
1.8739	365.600905294	6.0
1.8842	366.569441325	6.0
1.8944	367.523544511	14.0
1.9046	368.472668854	11.0
1.9149	369.426072485	8.0
1.9251	370.365268771	10.0
1.9354	371.308699583	9.0
1.9456	372.238071662	8.0
1.9558	373.162593952	11.0
1.9661	374.091284609	13.0
1.9763	375.006136185	9.0
1.9866	375.925112526	15.0
1.9968	376.830394547	10.0
2.007	377.730952489	15.0
2.0173	378.635570751	15.0
2.0275	379.526708652	17.0
2.0378	380.421864401	30.0
2.048	381.303680797	22.0
2.0582	382.180895566	17.0
2.0685	383.062065408	20.0
2.0787	383.930104312	28.0
2.089	384.802056917	19.0
2.0992	385.661015936	21.0
2.1094	386.515492606	31.0
2.1197	387.37382183	26.0
2.1299	388.21936048	28.0
2.1402	389.068711385	38.0
2.1504	389.905405508	24.0
2.1606	390.737733468	23.0
2.1709	391.573814121	35.0
2.1811	392.397435742	30.0
2.1914	393.224770801	24.0
2.2016	394.039777151	35.0
2.2118	394.850530514	36.0
2.2221	395.664939296	30.0
2.2323	396.467211994	35.0
2.2426	397.273101875	44.0
2.2528	398.066982618	38.0
2.263	398.856720613	28.0
2.2733	399.650019277	34.0
2.2835	400.431496433	39.0
2.2938	401.216497013	36.0
2.304	401.98979974	36.0
2.3142	402.759067103	30.0
2.3245	403.531802839	52.0
2.3347	404.29302349	37.0
2.345	405.057676235	34.0
2.3552	405.810934345	41.0
2.3654	406.56026169	43.0
2.3757	407.312967506	39.0
2.3859	408.054456717	29.0
2.3962	408.799289059	36.0
2.4064	409.533022124	45.0
2.4166	410.262926313	40.0
2.4269	410.9961214	44.0
2.4371	411.718390625	36.0
2.4474	412.443916324	32.0
2.4576	413.158630449	38.0
2.4678	413.869614946	31.0
2.4781	414.583805037	19.0
2.4883	415.287352474	25.0
2.4986	415.994071974	28.0
2.5088	416.690260145	35.0
2.519	417.382815361	27.0
2.5293	418.078493082	20.0
2.5395	418.763804014	24.0
2.5498	419.452204787	19.0
2.56	420.13034721	16.0
2.5702	420.804950849	31.0
2.5805	421.482596054	24.0
2.5907	422.150143185	20.0
2.601	422.820700067	14.0
2.6112	423.481264503	23.0
2.6214	424.138381883	15.0
2.6317	424.798461989	24.0
2.6419	425.448705772	28.0
2.6522	426.10188129	22.0
2.6624	426.745323374	21.0
2.6726	427.385407753	15.0
2.6829	428.028378062	24.0
2.6931	428.661767012	23.0
2.7034	429.298011705	25.0
2.7136	429.924775263	21.0
2.7238	430.548268149	17.0
2.7341	431.17457216	24.0
2.7443	431.791543168	22.0
2.7546	432.411295896	33.0
2.7648	433.021813248	31.0
2.775	433.629144707	18.0
2.7853	434.239214423	33.0
2.7955	434.840193056	25.0
2.8058	435.443881304	28.0
2.816	436.038573564	28.0
2.8262	436.630162511	32.0
2.8365	437.224418739	32.0
2.8467	437.809819531	36.0
2.857	438.397859704	43.0
2.8672	438.977137071	42.0
2.8774	439.553391566	50.0
2.8877	440.132244202	37.0
2.8979	440.702470944	33.0
2.9082	441.275268651	42.0
2.9184	441.839530691	40.0
2.9286	442.400848215	45.0
2.9389	442.964696534	32.0
2.9491	443.520142549	38.0
2.9594	444.078092887	40.0
2.9696	444.62772881	30.0
2.9798	445.17449654	46.0
2.9901	445.723729466	39.0
3.0003	446.264777881	41.0
3.0106	446.808265706	43.0
3.0208	447.343654631	40.0
3.031	447.87624971	35.0
3.0413	448.411246085	43.0
3.0515	448.938270099	36.0
3.0618	449.46767029	46.0
3.072	449.989181512	44.0
3.0822	450.507971306	34.0
3.0925	451.029100152	33.0
3.1027	451.542463287	40.0
3.113	452.058141007	37.0
3.1232	452.566134247	54.0
3.1334	453.0714766	39.0
3.1437	453.579097375	37.0
3.1539	454.079153732	25.0
3.1642	454.581464679	33.0
3.1744	455.076290333	40.0
3.1846	455.568533813	32.0
3.1949	456.062996657	42.0
3.2051	456.550091159	36.0
3.2154	457.039381809	31.0
3.2256	457.521381191	31.0
3.2358	458.000865332	35.0
3.2461	458.482511309	35.0
3.2563	458.956979936	49.0
3.2666	459.433587786	29.0
3.2768	459.903093364	35.0
3.287	460.370148897	41.0
3.2973	460.83931023	34.0
3.3075	461.301480256	41.0
3.3178	461.765734055	35.0
3.328	462.223069677	33.0
3.3382	462.678018762	28.0
3.3485	463.135019063	36.0
3.3587	463.585209277	32.0
3.369	464.037429251	37.0
3.3792	464.482910373	39.0
3.3894	464.926066818	27.0
3.3997	465.371221311	35.0
3.4099	465.809742239	35.0
3.4202	466.250240314	30.0
3.4304	466.684174213	42.0
3.4406	467.115843694	42.0
3.4509	467.54945943	32.0
3.4611	467.97661355	18.0
3.4714	468.405693567	33.0
3.4816	468.828379557	37.0
3.4918	469.248859824	33.0
3.5021	469.671235898	41.0
3.5123	470.087317846	31.0
3.5226	470.50527577	42.0
3.5328	470.917005406	32.0
3.543	471.326586493	36.0
3.5533	471.738014245	43.0
3.5635	472.14331102	28.0
3.5738	472.550435145	30.0
3.584	472.951492424	29.0
3.5942	473.350456845	25.0
3.6045	473.751220066	37.0
3.6147	474.146011229	24.0
3.625	474.542582375	37.0
3.6352	474.933243932	25.0
3.6454	475.321866881	26.0
3.6557	475.712242002	28.0
3.6659	476.096799866	35.0
3.6762	476.483091575	22.0
3.6864	476.863626877	42.0
3.6966	477.242176412	27.0
3.7069	477.622432702	33.0
3.7171	477.997022522	38.0
3.7274	478.373301245	22.0
3.7376	478.743972771	35.0
3.7478	479.112710003	36.0
3.7581	479.48310975	26.0
3.7683	479.847989907	21.0
3.7786	480.214515188	32.0
3.7888	480.575578616	29.0
3.799	480.934757888	39.0
3.8093	481.295556581	26.0
3.8195	481.650978756	38.0
3.8298	482.008003413	29.0
3.84	482.359707791	39.0
3.8502	482.709576853	24.0
3.8605	483.061023359	35.0
3.8707	483.40723271	34.0
3.881	483.755003006	27.0
3.8912	484.097590929	30.0
3.9014	484.438391109	38.0
3.9117	484.780727844	30.0
3.9219	485.117963176	34.0
3.9322	485.456718991	31.0
3.9424	485.790426764	32.0
3.9526	486.122393134	36.0
3.9629	486.455856231	27.0
3.9731	486.784350157	20.0
3.9834	487.114325154	25.0
3.9936	487.439382959	40.0
4.0038	487.762744498	27.0
4.0141	488.087563968	15.0
4.0243	488.407543072	26.0
4.0346	488.728964856	37.0
4.0448	489.045596906	24.0
4.055	489.360576659	15.0
4.0653	489.676976552	22.0
4.0755	489.988661545	31.0
4.0858	490.301751823	21.0
4.096	490.61017652	20.0
4.1062	490.916991749	32.0
4.1165	491.225190307	24.0
4.1267	491.528796179	30.0
4.137	491.83377091	25.0
4.1472	492.134200996	22.0
4.1574	492.433063332	30.0
4.1677	492.73327314	23.0
4.1779	493.029009308	32.0
4.1882	493.326078853	19.0
4.1984	493.618721553	19.0
4.2086	493.909837142	29.0
4.2189	494.202265275	23.0
4.2291	494.490335728	35.0
4.2394	494.779704996	24.0
4.2496	495.064762166	28.0
4.2598	495.348331809	26.0
4.2701	495.633179974	38.0
4.2803	495.913783413	33.0
4.2906	496.195652001	22.0
4.3008	496.473320265	26.0
4.311	496.749539559	23.0
4.3213	497.027004234	26.0
4.3315	497.300334211	30.0
4.3418	497.574896543	26.0
4.352	497.845367426	31.0
4.3622	498.114426897	27.0
4.3725	498.384699469	18.0
4.3827	498.650944517	38.0
4.393	498.918389976	35.0
4.4032	499.181850041	27.0
4.4134	499.443935278	21.0
4.4237	499.707202172	15.0
4.4339	499.966545938	27.0
4.4442	500.227059	24.0
4.4544	500.483689971	27.0
4.4646	500.738981753	22.0
4.4749	500.99542456	33.0
4.4851	501.248045931	35.0
4.4954	501.501806289	29.0
4.5056	501.751785183	25.0
4.5158	502.0004596	30.0
4.5261	502.250255208	19.0
4.5363	502.496328433	25.0
4.5466	502.743511122	23.0
4.5568	502.987010366	20.0
4.567	503.229238945	37.0
4.5773	503.472559654	25.0
4.5875	503.712254467	25.0
4.5978	503.953029986	21.0
4.608	504.190217537	30.0
4.6182	504.42616736	30.0
4.6285	504.663181004	19.0
4.6387	504.896662738	24.0
4.649	505.131197165	28.0
4.6592	505.362236628	18.0
4.6694	505.592070446	20.0
4.6797	505.822940509	25.0
4.6899	506.050370212	17.0
4.7002	506.278825322	24.0
4.7104	506.503876059	20.0
4.7206	506.727752403	18.0
4.7309	506.952638131	19.0
4.7411	507.174172677	19.0
4.7514	507.39670605	21.0
4.7616	507.615923295	27.0
4.7718	507.833996587	16.0
4.7821	508.0530531	19.0
4.7923	508.268845296	13.0
4.8026	508.485610427	22.0
4.8128	508.699145388	19.0
4.823	508.911566048	15.0
4.8333	509.124944443	11.0
4.8435	509.335143135	14.0
4.8538	509.546289544	18.0
4.864	509.754289509	21.0
4.8742	509.961204059	12.0
4.8845	510.169051517	19.0
4.8947	510.373801693	19.0
4.905	510.57947502	17.0
4.9152	510.782083462	12.0
4.9254	510.983634623	10.0
4.9357	511.186094511	6.0
4.9459	511.385537401	17.0
4.9562	511.585879513	13.0
4.9664	511.783236185	10.0
4.9766	511.97956298	7.0
4.9869	512.176774948	13.0
4.9971	512.371048121	15.0
5.0074	512.566197207	7.0
5.0176	512.758438238	7.0
5.0278	512.949676088	7.0
5.0381	513.141776166	12.0
5.0483	513.331013625	5.0
5.0586	513.521104292	8.0
5.0688	513.708362284	5.0
5.079	513.894643098	9.0
5.0893	514.081763791	13.0
5.0995	514.266096065	10.0
5.1098	514.451259432	14.0
5.12	514.633663549	7.0
5.1302	514.815115817	10.0
5.1405	514.997386194	9.0
5.1507	515.17694043	7.0
5.161	515.357304217	8.0
5.1712	515.534980275	7.0
5.1814	515.711729157	5.0
5.1917	515.889274941	4.0
5.2019	516.06417499	4.0
5.2122	516.239863605	5.0
5.2224	516.412934159	2.0
5.2326	516.585101571	4.0
5.2429	516.758045228	3.0
5.2531	516.92841173	5.0
5.2634	517.099546357	6.0
5.2736	517.268130786	6.0
5.2838	517.435835482	2.0
5.2941	517.604296304	1.0
5.3043	517.770246771	1.0
5.3146	517.936945454	1.0
5.3248	518.101160041	4.0
5.335	518.264517699	4.0
5.3453	518.428611883	2.0
5.3555	518.590260783	2.0
5.3658	518.752638505	6.0
5.376	518.91259652	4.0
5.3862	519.071719819	7.0
5.3965	519.231560552	4.0
5.4067	519.389019385	2.0
5.417	519.547188148	2.0
5.4272	519.702999925	2.0
5.4374	519.857998622	2.0
5.4477	520.013696157	2.0
5.4579	520.167073533	1.0
5.4682	520.321142437	3.0
5.4784	520.47291545	2.0
5.4886	520.623896458	1.0
5.4989	520.775558191	0.0
5.5091	520.924959903	3.0
5.5194	521.075035219	0.0
5.5296	521.222874156	0.0
5.5398	521.369941618	1.0
5.5501	521.517672158	2.0
5.5603	521.663201261	0.0
5.5706	521.809386506	2.0
5.5808	521.953393341	1.0
5.591	522.096648698	0.0
5.6013	522.240549946	1.0
5.6115	522.382306819	0.0
5.6218	522.524702828	3.0
5.632	522.664976892	3.0
5.6422	522.804518957	0.0
5.6525	522.944690171	1.0
5.6627	523.082772594	1.0
5.673	523.221477585	1.0
5.6832	523.358115635	0.0
5.6934	523.49404066	1.0
5.7037	523.630578525	2.0
5.7139	523.765081743	0.0
5.7242	523.900191391	0.0
5.7344	524.033287675	3.0
5.7446	524.165689415	0.0
5.7549	524.298688112	1.0
5.7651	524.4297049	2.0
5.7754	524.5613124	0.0
5.7856	524.690958723	0.0
5.7958	524.819928505	3.0
5.8061	524.949479771	0.0
5.8163	525.0771005	0.0
5.8266	525.20529663	1.0
5.8368	525.331582417	2.0
5.847	525.457209202	1.0
5.8573	525.583402396	1.0
5.8675	525.707715095	2.0
5.8778	525.83258828	0.0
5.888	525.95560064	0.0
5.8982	526.077971079	1.0
5.9085	526.200893246	1.0
5.9187	526.321983662	1.0
5.929	526.443620035	1.0
5.9392	526.563443818	0.0
5.9494	526.682642319	2.0
5.9597	526.802378246	1.0
5.9699	526.920329903	1.0
5.9802	527.038813365	1.0
5.9904	527.155531221	0.0
6.0006	527.271640002	0.0
6.0109	527.38827228	0.0
6.0211	527.503166537	0.0
6.0314	527.618578814	1.0
6.0416	527.732271251	1.0
6.0518	527.845370401	0.0
6.0621	527.958979478	0.0
6.0723	528.070895585	0.0
6.0826	528.183316285	0.0
6.0928	528.294061724	0.0
6.103	528.404229255	0.0
6.1133	528.514893494	0.0
6.1235	528.623908648	2.0
6.1338	528.733415314	0.0
6.144	528.841290144	0.0
6.1542	528.948602046	0.0
6.1645	529.056397781	0.0
6.1747	529.162587176	0.0
6.185	529.269255343	0.0
6.1952	529.374333972	0.0
6.2054	529.478864264	1.0
6.2157	529.583865849	2.0
6.2259	529.687302731	0.0
6.2362	529.791205975	1.0
6.2464	529.893560883	0.0
6.2566	529.995381668	2.0
6.2669	530.097661528	0.0
6.2771	530.198417244	2.0
6.2874	530.299627234	1.0
6.2976	530.399329023	0.0
6.3078	530.498510532	2.0
6.3181	530.598139218	1.0
6.3283	530.696283266	0.0
6.3386	530.794869814	1.0
6.3488	530.891987253	1.0
6.359	530.988597899	1.0
6.3693	531.085644131	0.0
6.3795	531.181244208	1.0
6.3898	531.277275314	0.0
6.4	531.371875392	1.0
6.4102	531.465981815	0.0
6.4205	531.560512531	0.0
6.4307	531.653634579	1.0
6.441	531.747176483	1.0
6.4512	531.839324453	1.0
6.4614	531.930991562	0.0
6.4717	532.023071968	1.0
6.4819	532.113780219	0.0
6.4922	532.204897443	0.0
6.5024	532.294656864	0.0
6.5126	532.38394789	1.0
6.5229	532.473641499	0.0
6.5331	532.56199852	0.0
6.5434	532.650753914	2.0
6.5536	532.7381867	0.0
6.5638	532.825163232	0.0
6.5741	532.912531912	0.0
6.5843	532.99859865	1.0
6.5946	533.085053433	0.0
6.6048	533.170219893	0.0
6.615	533.254941924	0.0
6.6253	533.340045939	0.0
6.6355	533.423881759	1.0
6.6458	533.508095566	0.0
6.656	533.591054444	1.0
6.6662	533.673580413	1.0
6.6765	533.756478465	1.0
6.6867	533.838141194	1.0
6.697	533.920172113	1.0
6.7072	534.000980631	1.0
6.7174	534.081367463	1.0
6.7277	534.162116731	0.0
6.7379	534.241662698	1.0
6.7482	534.321567311	0.0
6.7584	534.400281208	2.0
6.7686	534.478584349	0.0
6.7789	534.557240533	0.0
6.7891	534.634724606	1.0
6.7994	534.712558028	1.0
6.8096	534.789231599	1.0
6.8198	534.865505061	1.0
6.8301	534.942122414	0.0
6.8403	535.017598038	0.0
6.8506	535.093413957	1.0
6.8608	535.168100089	2.0
6.871	535.242396482	2.0
6.8813	535.317027853	0.0
6.8915	535.390547089	0.0
6.9018	535.4643978	0.0
6.912	535.537148008	0.0
6.9222	535.60951858	0.0
6.9325	535.682215447	0.0
6.9427	535.753829007	0.0
6.953	535.825765448	2.0
6.9632	535.896629914	0.0
6.9734	535.967124583	1.0
6.9837	536.03793709	1.0
6.9939	536.10769437	0.0
7.0042	536.177766162	1.0
7.0144	536.246793765	1.0
7.0246	536.315461157	1.0
7.0349	536.384438148	1.0
7.0451	536.452387264	1.0
7.0554	536.52064274	3.0
7.0656	536.587881092	1.0
7.0758	536.654768571	0.0
7.0861	536.721957624	0.0
7.0963	536.788145445	1.0
7.1066	536.854631685	0.0
7.1168	536.920127167	0.0
7.127	536.98528087	0.0
7.1373	537.050728329	0.0
7.1475	537.11520051	1.0
7.1578	537.179963374	0.0
7.168	537.243761161	2.0
7.1782	537.307226029	0.0
7.1885	537.370977038	0.0
7.1987	537.433778049	2.0
7.209	537.496862209	1.0
7.2192	537.559006306	2.0
7.2294	537.620826115	1.0
7.2397	537.682924648	0.0
7.2499	537.744097807	0.0
7.2602	537.805546775	1.0
7.2704	537.866080049	1.0
7.2806	537.926297439	0.0
7.2909	537.986786329	0.0
7.3011	538.046373831	1.0
7.3114	538.106229994	0.0
7.3216	538.165194198	0.0
7.3318	538.223850705	1.0
7.3421	538.282771676	1.0
7.3523	538.340814623	0.0
7.3626	538.399119267	1.0
7.3728	538.456555071	0.0
7.383	538.513691156	0.0
7.3933	538.571084848	0.0
7.4035	538.627623277	0.0
7.4138	538.684416618	1.0
7.424	538.740363641	0.0
7.4342	538.796018713	0.0
7.4445	538.851924716	0.0
7.4547	538.906997623	1.0
7.465	538.962318837	0.0
7.4752	539.016815669	0.0
7.4854	539.071028118	2.0
7.4957	539.125484993	0.0
7.5059	539.179130367	0.0
7.5162	539.23301761	0.0
7.5264	539.286101842	0.0
7.5366	539.338909061	0.0
7.5469	539.391954371	0.0
7.5571	539.444209215	0.0
7.5674	539.496699658	0.0
7.5776	539.548407904	2.0
7.5878	539.599846319	1.0
7.5981	539.651516652	0.0
7.6083	539.702417009	1.0
7.6186	539.753546859	1.0
7.6288	539.803914787	0.0
7.639	539.854019877	1.0
7.6493	539.904350875	0.0
7.6595	539.953931854	1.0
7.6698	540.003736378	0.0
7.68	540.052798729	1.0
7.6902	540.101605056	2.0
7.7005	540.150631434	1.0
7.7107	540.198927236	1.0
7.721	540.247440787	2.0
7.7312	540.295231403	1.0
7.7414	540.342772632	0.0
7.7517	540.390528208	1.0
7.7619	540.437572144	1.0
7.7722	540.484828185	1.0
7.7824	540.531380031	0.0
7.7926	540.577688953	1.0
7.8029	540.624206667	0.0
7.8131	540.670031187	0.0
7.8234	540.716062315	1.0
7.8336	540.7614075	0.0
7.8438	540.806516058	1.0
7.8541	540.851827996	0.0
7.8643	540.896464709	0.0
7.8746	540.941302673	0.0
7.8848	540.985472475	0.0
7.895	541.029411784	1.0
7.9053	541.073549201	1.0
7.9155	541.117028894	1.0
7.9258	541.160704624	1.0
7.936	541.20372951	2.0
7.9462	541.246529877	0.0
7.9565	541.289523217	0.0
7.9667	541.331875882	0.0
7.977	541.374419502	1.0
7.9872	541.416329149	0.0
7.9974	541.458020097	0.0
8.0077	541.499899016	0.0
8.0179	541.541153867	1.0
8.0282	541.582594723	1.0
8.0384	541.623418038	0.0
8.0486	541.664028324	0.0
8.0589	541.704821708	0.0
8.0691	541.745007201	0.0
