TL-DOS Lehrstuhlversuch
detector=R1407303
job_number=2015-10-26-005
irradiation_dose [mSv]=10.0

[BEGIN DATA]
time [sec] 	 temperature [K] 	 photoncount 
0.0	81.5664115079	0.0
0.0102	83.7164408621	1.0
0.0205	85.8774365633	1.0
0.0307	88.0074840977	1.0
0.041	90.1483960609	1.0
0.0512	92.2586474814	3.0
0.0614	94.3591177796	2.0
0.0717	96.4703016461	1.0
0.0819	98.5512507137	1.0
0.0922	100.64281378	2.0
0.1024	102.704423043	3.0
0.1126	104.756476641	2.0
0.1229	106.818996856	1.0
0.1331	108.851979197	1.0
0.1434	110.895330879	2.0
0.1536	112.909419205	0.0
0.1638	114.914172129	0.0
0.1741	116.929150409	0.0
0.1843	118.915271675	2.0
0.1946	120.911523266	1.0
0.2048	122.879186032	0.0
0.215	124.837728581	1.0
0.2253	126.806260788	7.0
0.2355	128.746601146	3.0
0.2458	130.696838321	1.0
0.256	132.619145655	0.0
0.2662	134.532542998	0.0
0.2765	136.455699732	0.0
0.2867	138.351314452	0.0
0.297	140.256597862	0.0
0.3072	142.134595226	0.0
0.3174	144.003887977	0.0
0.3277	145.882715162	0.0
0.3379	147.734635187	0.0
0.3482	149.596001036	2.0
0.3584	151.430709792	0.0
0.3686	153.256914581	0.0
0.3789	155.092434031	0.0
0.3891	156.901666542	0.0
0.3994	158.720127147	0.0
0.4096	160.512545116	0.0
0.4198	162.296655137	0.0
0.4301	164.089865113	0.0
0.4403	165.857394075	0.0
0.4506	167.633938419	0.0
0.4608	169.385040421	0.0
0.471	171.128025976	0.0
0.4813	172.879901729	0.0
0.4915	174.606688425	0.0
0.5018	176.342282695	0.0
0.512	178.05302108	0.0
0.5222	179.755830106	0.0
0.5325	181.467324406	0.0
0.5427	183.154307962	0.0
0.553	184.849896074	0.0
0.5632	186.52120124	0.0
0.5734	188.184759821	1.0
0.5837	189.856803477	1.0
0.5939	191.504901373	0.0
0.6042	193.161405486	0.0
0.6144	194.794186383	0.0
0.6246	196.419399259	0.0
0.6349	198.052901625	0.0
0.6451	199.66301019	0.0
0.6554	201.281331205	0.0
0.6656	202.876475836	0.0
0.6758	204.46422689	0.0
0.6861	206.060076358	0.0
0.6963	207.633071262	0.0
0.7066	209.214089316	0.0
0.7168	210.772465211	0.0
0.727	212.323617953	0.0
0.7373	213.882682439	0.0
0.7475	215.419419167	0.0
0.7578	216.963994108	0.0
0.768	218.486448801	0.0
0.7782	220.001846838	0.0
0.7885	221.52497425	0.0
0.7987	223.026288568	0.0
0.809	224.535260425	0.0
0.8192	226.022621914	1.0
0.8294	227.503089407	0.0
0.8397	228.991108109	1.0
0.8499	230.457816518	0.0
0.8602	231.932005957	0.0
0.8704	233.385083155	1.0
0.8806	234.831425267	1.0
0.8909	236.285144529	1.0
0.9011	237.71804471	0.0
0.9114	239.158253479	0.0
0.9216	240.577836653	0.0
0.9318	241.990839988	0.0
0.9421	243.411050426	0.0
0.9523	244.810921672	0.0
0.9626	246.21793304	0.0
0.9728	247.604794241	0.0
0.983	248.985227271	0.0
0.9933	250.372701278	2.0
1.0035	251.740304919	2.0
1.0138	253.114884099	0.0
1.024	254.469777583	1.0
1.0342	255.818391067	2.0
1.0445	257.173883231	1.0
1.0547	258.509963048	0.0
1.065	259.852857616	0.0
1.0752	261.176520251	2.0
1.0854	262.494047642	1.0
1.0957	263.818295157	0.0
1.1059	265.123577788	1.0
1.1162	266.435518087	0.0
1.1264	267.728669757	0.0
1.1366	269.015827604	1.0
1.1469	270.309550672	1.0
1.1571	271.584746004	6.0
1.1674	272.866445543	1.0
1.1776	274.129789538	3.0
1.1878	275.387277869	2.0
1.1981	276.651180091	0.0
1.2083	277.89698165	2.0
1.2186	279.14913749	1.0
1.2288	280.383360889	2.0
1.239	281.6118636	3.0
1.2493	282.846632359	0.0
1.2595	284.063717682	1.0
1.2698	285.287010818	5.0
1.28	286.492784863	1.0
1.2902	287.692970084	4.0
1.3005	288.899276918	6.0
1.3107	290.088307927	2.0
1.321	291.283403655	5.0
1.3312	292.461384116	5.0
1.3414	293.633904576	10.0
1.3517	294.812405545	5.0
1.3619	295.974028902	1.0
1.3722	297.141577186	1.0
1.3824	298.292404714	3.0
1.3926	299.437898099	2.0
1.4029	300.589234138	4.0
1.4131	301.724081602	6.0
1.4234	302.86471742	4.0
1.4336	303.989017903	9.0
1.4438	305.108107197	8.0
1.4541	306.232904469	6.0
1.4643	307.341593235	8.0
1.4746	308.455936931	9.0
1.4848	309.554321828	9.0
1.495	310.647615656	10.0
1.5053	311.746485891	8.0
1.5155	312.829618927	8.0
1.5258	313.918276545	13.0
1.536	314.991343222	15.0
1.5462	316.05943618	17.0
1.5565	317.132977006	20.0
1.5667	318.191143383	10.0
1.577	319.254706998	19.0
1.5872	320.303039048	19.0
1.5974	321.346512027	18.0
1.6077	322.395307298	28.0
1.6179	323.429082507	22.0
1.6282	324.468130545	14.0
1.6384	325.492298113	22.0
1.6486	326.511718613	21.0
1.6589	327.536338725	29.0
1.6691	328.546284992	27.0
1.6794	329.561382548	37.0
1.6896	330.561942635	28.0
1.6998	331.557865075	40.0
1.7101	332.558867274	31.0
1.7203	333.545533867	28.0
1.7306	334.537233009	47.0
1.7408	335.514729776	38.0
1.751	336.487695797	40.0
1.7613	337.465624486	51.0
1.7715	338.42954801	44.0
1.7818	339.398388082	42.0
1.792	340.353353149	51.0
1.8022	341.303891904	65.0
1.8125	342.259278937	59.0
1.8227	343.20098363	74.0
1.833	344.147491542	66.0
1.8432	345.080444273	68.0
1.8534	346.009072722	88.0
1.8637	346.942437693	84.0
1.8739	347.862435708	83.0
1.8842	348.787126224	96.0
1.8944	349.698574014	101.0
1.9046	350.605797197	117.0
1.9149	351.517647724	130.0
1.9251	352.416439408	129.0
1.9354	353.31981543	129.0
1.9456	354.210253976	138.0
1.9558	355.096565293	165.0
1.9661	355.987397292	138.0
1.9763	356.86547146	186.0
1.9866	357.748024296	171.0
1.9968	358.617937869	194.0
2.007	359.483819348	204.0
2.0173	360.354117305	213.0
2.0275	361.211951505	192.0
2.0378	362.074161136	266.0
2.048	362.924022845	232.0
2.0582	363.769945402	300.0
2.0685	364.620182636	289.0
2.0787	365.458243406	304.0
2.089	366.300578753	309.0
2.0992	367.130850802	335.0
2.1094	367.957274498	369.0
2.1197	368.787913415	363.0
2.1299	369.606656542	362.0
2.1402	370.429575715	427.0
2.1504	371.240709654	397.0
2.1606	372.048083946	460.0
2.1709	372.859576296	480.0
2.1811	373.659447059	535.0
2.1914	374.463397608	504.0
2.2016	375.255834578	589.0
2.2118	376.044598562	628.0
2.2221	376.837385682	633.0
2.2323	377.618819097	640.0
2.2426	378.404238257	656.0
2.2528	379.17840923	700.0
2.263	379.948991882	742.0
2.2733	380.723504935	806.0
2.2835	381.48692599	815.0
2.2938	382.254240917	855.0
2.304	383.010566933	881.0
2.3142	383.763387339	900.0
2.3245	384.520047549	947.0
2.3347	385.265871437	989.0
2.345	386.015499441	987.0
2.3552	386.754391833	1042.0
2.3654	387.489859421	1078.0
2.3757	388.229078304	1150.0
2.3859	388.957710645	1226.0
2.3962	389.690059418	1254.0
2.4064	390.411920038	1269.0
2.4166	391.130434797	1272.0
2.4269	391.852614382	1265.0
2.4371	392.56445145	1406.0
2.4474	393.279919284	1414.0
2.4576	393.985140722	1442.0
2.4678	394.687093422	1502.0
2.4781	395.392626472	1509.0
2.4883	396.088055405	1677.0
2.4986	396.787031412	1581.0
2.5088	397.475997207	1660.0
2.519	398.161769611	1669.0
2.5293	398.851039836	1669.0
2.5395	399.530438847	1711.0
2.5498	400.213303172	1622.0
2.56	400.886388023	1649.0
2.5702	401.556353092	1718.0
2.5805	402.229735357	1748.0
2.5907	402.893473943	1763.0
2.601	403.560597965	1659.0
2.6112	404.218167936	1724.0
2.6214	404.872690036	1677.0
2.6317	405.530550564	1782.0
2.6419	406.178989704	1684.0
2.6522	406.830736245	1666.0
2.6624	407.473148959	1696.0
2.6726	408.112584057	1680.0
2.6829	408.75528063	1597.0
2.6931	409.388772983	1629.0
2.7034	410.0254965	1581.0
2.7136	410.653101338	1567.0
2.7238	411.277797196	1448.0
2.7341	411.90567935	1469.0
2.7443	412.524569445	1395.0
2.7546	413.146616224	1408.0
2.7648	413.759754514	1378.0
2.775	414.370050877	1332.0
2.7853	414.983460091	1320.0
2.7955	415.588084516	1253.0
2.8058	416.195792863	1205.0
2.816	416.794798064	1176.0
2.8262	417.391026846	1113.0
2.8365	417.990296727	1102.0
2.8467	418.580984312	1106.0
2.857	419.174684732	1040.0
2.8672	419.759882619	966.0
2.8774	420.342368083	1044.0
2.8877	420.927824548	990.0
2.8979	421.504896543	971.0
2.9082	422.084911926	1032.0
2.9184	422.656620762	1001.0
2.9286	423.225679698	957.0
2.9389	423.797641152	969.0
2.9491	424.361411401	992.0
2.9594	424.928057192	951.0
2.9696	425.486587906	970.0
2.9798	426.042529801	1049.0
2.9901	426.601307309	1075.0
3.0003	427.152082424	1059.0
3.0106	427.705666798	1092.0
3.0208	428.25132315	1082.0
3.031	428.794450357	1173.0
3.0413	429.340347815	1143.0
3.0515	429.878427338	1226.0
3.0618	430.419251366	1221.0
3.072	430.952330115	1342.0
3.0822	431.482938018	1304.0
3.0925	432.016252317	1291.0
3.1027	432.541928886	1312.0
3.113	433.070286699	1390.0
3.1232	433.591077766	1438.0
3.1334	434.10945494	1444.0
3.1437	434.630476126	1492.0
3.1539	435.144035635	1520.0
3.1642	435.660214584	1500.0
3.1744	436.169001204	1633.0
3.1846	436.675429572	1666.0
3.1949	437.184441006	1614.0
3.2051	437.686162759	1663.0
3.2154	438.190443572	1731.0
3.2256	438.687502452	1743.0
3.2358	439.182257439	1763.0
3.2461	439.679535952	1785.0
3.2563	440.169692813	1766.0
3.2666	440.662349747	1825.0
3.2768	441.147951217	1806.0
3.287	441.631301899	1837.0
3.2973	442.117117938	1902.0
3.3075	442.595976483	1851.0
3.3178	443.077277474	1925.0
3.328	443.551685631	1912.0
3.3382	444.023894882	1976.0
3.3485	444.498512663	1927.0
3.3587	444.966333323	1936.0
3.369	445.436540128	2014.0
3.3792	445.900012983	2029.0
3.3894	446.361337618	2022.0
3.3997	446.825015265	2017.0
3.4099	447.282052468	1916.0
3.4202	447.741420814	1935.0
3.4304	448.19421043	1988.0
3.4406	448.644901343	1999.0
3.4509	449.097891031	1895.0
3.4611	449.544393339	1950.0
3.4714	449.993173057	1914.0
3.4816	450.435525687	1927.0
3.4918	450.875827991	2026.0
3.5021	451.318376081	1960.0
3.5123	451.754586328	1884.0
3.5226	452.19302149	1841.0
3.5328	452.625177711	1844.0
3.543	453.055330866	1923.0
3.5533	453.487678042	1894.0
3.5635	453.913833465	1848.0
3.5738	454.342162517	1847.0
3.584	454.76435736	1800.0
3.5942	455.184595309	1785.0
3.6045	455.606976706	1774.0
3.6147	456.023309072	1792.0
3.625	456.441764964	1758.0
3.6352	456.854228044	1712.0
3.6454	457.264779336	1740.0
3.6557	457.677424669	1652.0
3.6659	458.084160403	1632.0
3.6762	458.492970716	1619.0
3.6864	458.895926353	1639.0
3.6966	459.29701427	1713.0
3.7069	459.700147959	1677.0
3.7171	460.097508268	1544.0
3.7274	460.496895337	1672.0
3.7376	460.890562681	1603.0
3.7478	461.282405358	1612.0
3.7581	461.676246651	1559.0
3.7683	462.064447642	1547.0
3.7786	462.454628675	1526.0
3.7888	462.839221826	1540.0
3.799	463.222032369	1578.0
3.8093	463.606795459	1590.0
3.8195	463.986048259	1551.0
3.8298	464.367235459	1587.0
3.84	464.742963581	1591.0
3.8502	465.116950184	1590.0
3.8605	465.492844327	1581.0
3.8707	465.863355195	1572.0
3.881	466.235755875	1546.0
3.8912	466.60282331	1659.0
3.9014	466.968189369	1520.0
3.9117	467.335418998	1633.0
3.9219	467.697389439	1590.0
3.9322	468.061206131	1602.0
3.9424	468.419812511	1551.0
3.9526	468.776756733	1595.0
3.9629	469.135521569	1536.0
3.9731	469.489148443	1578.0
3.9834	469.844579011	1572.0
3.9936	470.194919368	1547.0
4.0038	470.54363588	1590.0
4.0141	470.89413104	1524.0
4.0243	471.23960667	1599.0
4.0346	471.586844418	1619.0
4.0448	471.929109286	1573.0
4.055	472.269787739	1556.0
4.0653	472.612203843	1568.0
4.0755	472.949716118	1540.0
4.0858	473.288949894	1615.0
4.096	473.623325417	1524.0
4.1062	473.956151093	1594.0
4.1165	474.290674365	1634.0
4.1267	474.620406844	1587.0
4.137	474.951821143	1582.0
4.1472	475.278489173	1561.0
4.1574	475.603643081	1496.0
4.1677	475.930455455	1577.0
4.1779	476.252587466	1570.0
4.1882	476.576362529	1608.0
4.1984	476.895500728	1520.0
4.2086	477.213159705	1530.0
4.2189	477.53243892	1535.0
4.2291	477.847145657	1518.0
4.2394	478.163457572	1572.0
4.2496	478.475239505	1510.0
4.2598	478.785576313	1486.0
4.2701	479.097496011	1556.0
4.2803	479.404948629	1530.0
4.2906	479.713969426	1472.0
4.3008	480.018564657	1451.0
4.311	480.321748075	1522.0
4.3213	480.626477897	1488.0
4.3315	480.926843605	1430.0
4.3418	481.228741346	1469.0
4.352	481.526315534	1431.0
4.3622	481.822510449	1442.0
4.3725	482.120216124	1455.0
4.3827	482.41365828	1389.0
4.393	482.708597155	1455.0
4.4032	482.999312135	1425.0
4.4134	483.288679637	1440.0
4.4237	483.579523074	1403.0
4.4339	483.866201269	1411.0
4.4442	484.154341682	1392.0
4.4544	484.438355563	1328.0
4.4646	484.721053025	1386.0
4.4749	485.005192402	1404.0
4.4851	485.285262547	1357.0
4.4954	485.566761206	1356.0
4.5056	485.844228451	1345.0
4.5158	486.120409621	1344.0
4.5261	486.39799947	1314.0
4.5363	486.671613883	1333.0
4.5466	486.946623883	1351.0
4.5568	487.217695394	1357.0
4.567	487.487510475	1362.0
4.5773	487.758701764	1372.0
4.5875	488.026009253	1347.0
4.5978	488.29468016	1317.0
4.608	488.559503362	1300.0
4.6182	488.823099096	1249.0
4.6285	489.088039314	1293.0
4.6387	489.349185257	1305.0
4.649	489.611663189	1299.0
4.6592	489.870382108	1309.0
4.6694	490.127901852	1347.0
4.6797	490.38673509	1330.0
4.6899	490.641861512	1245.0
4.7002	490.89828922	1290.0
4.7104	491.151044563	1295.0
4.7206	491.402628371	1253.0
4.7309	491.655495397	1346.0
4.7411	491.90474105	1273.0
4.7514	492.155257995	1299.0
4.7616	492.402187224	1263.0
4.7718	492.647971923	1262.0
4.7821	492.89501026	1286.0
4.7923	493.138510699	1235.0
4.8026	493.383253126	1317.0
4.8128	493.624490535	1274.0
4.823	493.864609796	1264.0
4.8333	494.105953799	1307.0
4.8435	494.343841453	1302.0
4.8538	494.582942467	1292.0
4.864	494.818619255	1268.0
4.8742	495.053203669	1319.0
4.8845	495.288984593	1273.0
4.8947	495.52138884	1306.0
4.905	495.754978478	1263.0
4.9152	495.985222819	1302.0
4.9254	496.214399966	1347.0
4.9357	496.444746044	1293.0
4.9459	496.671793278	1341.0
4.9562	496.899998579	1262.0
4.9664	497.124935694	1316.0
4.9766	497.348830214	1296.0
4.9869	497.573866721	1277.0
4.9971	497.795680423	1207.0
5.0074	498.018625499	1268.0
5.0176	498.238377722	1322.0
5.0278	498.457111381	1338.0
5.0381	498.676960705	1262.0
5.0483	498.89366151	1280.0
5.0586	499.111467611	1333.0
5.0688	499.326154455	1296.0
5.079	499.539846214	1299.0
5.0893	499.754627921	1253.0
5.0995	499.966333684	1243.0
5.1098	500.179119265	1279.0
5.12	500.388857489	1249.0
5.1302	500.597623566	1230.0
5.1405	500.807454467	1322.0
5.1507	501.014280326	1232.0
5.161	501.222161111	1206.0
5.1712	501.427064784	1255.0
5.1814	501.631018718	1277.0
5.1917	501.83601293	1182.0
5.2019	502.038071368	1167.0
5.2122	502.241160417	1237.0
5.2224	502.441340976	1214.0
5.2326	502.640593688	1196.0
5.2429	502.8408627	1158.0
5.2531	503.038263609	1083.0
5.2634	503.236671372	1084.0
5.2736	503.432237687	1077.0
5.2838	503.626897543	1117.0
5.2941	503.822550272	1130.0
5.3043	504.015401009	1026.0
5.3146	504.209235392	1043.0
5.3248	504.400293824	1102.0
5.335	504.59046669	1049.0
5.3453	504.781609544	1031.0
5.3555	504.970014993	946.0
5.3658	505.159381414	919.0
5.376	505.346035871	933.0
5.3862	505.531825175	884.0
5.3965	505.718562107	928.0
5.4067	505.902624733	944.0
5.417	506.087626181	916.0
5.4272	506.269978176	821.0
5.4374	506.451484961	894.0
5.4477	506.633917531	813.0
5.4579	506.813737438	795.0
5.4682	506.994474527	839.0
5.4784	507.172623234	749.0
5.4886	507.349946213	729.0
5.4989	507.528173638	721.0
5.5091	507.703848622	712.0
5.5194	507.880419647	712.0
5.5296	508.054461954	646.0
5.5398	508.227697566	676.0
5.5501	508.401816775	652.0
5.5603	508.57344238	599.0
5.5706	508.74594337	609.0
5.5808	508.915973931	638.0
5.591	509.085216391	592.0
5.6013	509.255322081	540.0
5.6115	509.422991646	547.0
5.6218	509.591516418	513.0
5.632	509.757627704	502.0
5.6422	509.922969056	529.0
5.6525	510.089153741	491.0
5.6627	510.252958453	467.0
5.673	510.41759866	478.0
5.6832	510.579881014	477.0
5.6934	510.74141118	409.0
5.7037	510.90376524	425.0
5.7139	511.063794186	410.0
5.7242	511.22463937	388.0
5.7344	511.383181048	379.0
5.7446	511.540987878	342.0
5.7549	511.699599611	359.0
5.7651	511.855939824	324.0
5.7754	512.01307746	334.0
5.7856	512.167964688	324.0
5.7958	512.322134006	296.0
5.8061	512.477089674	300.0
5.8163	512.629826181	273.0
5.8266	512.783341731	256.0
5.8368	512.934658745	237.0
5.847	513.085274397	267.0
5.8573	513.236658273	215.0
5.8675	513.385874141	211.0
5.8778	513.535851094	239.0
5.888	513.683680189	214.0
5.8982	513.830824089	214.0
5.9085	513.978718505	203.0
5.9187	514.124494887	203.0
5.929	514.27101481	175.0
5.9392	514.415436384	156.0
5.9494	514.559188556	160.0
5.9597	514.703673945	155.0
5.9699	514.846090122	162.0
5.9802	514.9892327	166.0
5.9904	515.130325298	135.0
6.0006	515.270763924	133.0
6.0109	515.411918866	109.0
6.0211	515.551052291	120.0
6.0314	515.690895375	112.0
6.0416	515.828735731	106.0
6.0518	515.965937189	97.0
6.0621	516.103838451	97.0
6.0723	516.239764795	100.0
6.0826	516.376384438	84.0
6.0928	516.511047517	100.0
6.103	516.645086426	72.0
6.1133	516.779809008	83.0
6.1235	516.912602193	76.0
6.1338	517.046072698	73.0
6.144	517.177631738	63.0
6.1542	517.308580995	56.0
6.1645	517.440198166	54.0
6.1747	517.569930415	69.0
6.185	517.70032437	69.0
6.1952	517.82885092	62.0
6.2054	517.956781743	50.0
6.2157	518.085365085	50.0
6.2259	518.212106952	45.0
6.2362	518.339495273	66.0
6.2464	518.465059233	45.0
6.2566	518.590041199	36.0
6.2669	518.715660642	52.0
6.2771	518.839481057	45.0
6.2874	518.963933025	40.0
6.2976	519.086602685	38.0
6.3078	519.208703765	41.0
6.3181	519.331427628	43.0
6.3283	519.452393932	46.0
6.3386	519.573977231	29.0
6.3488	519.693819306	29.0
6.359	519.813105906	26.0
6.3693	519.933000934	32.0
6.3795	520.051178915	34.0
6.3898	520.169959669	30.0
6.4	520.287039335	30.0
6.4102	520.40357633	38.0
6.4205	520.520707729	16.0
6.4307	520.636161659	28.0
6.441	520.752204469	19.0
6.4512	520.8665854	28.0
6.4614	520.98043617	24.0
6.4717	521.094867642	25.0
6.4819	521.207660312	23.0
6.4922	521.321028287	28.0
6.5024	521.432772691	19.0
6.5126	521.543999154	17.0
6.5229	521.655792934	20.0
6.5331	521.765985687	27.0
6.5434	521.876740484	19.0
6.5536	521.985909134	19.0
6.5638	522.094571781	15.0
6.5741	522.203788669	20.0
6.5843	522.311441433	11.0
6.5946	522.419643287	17.0
6.6048	522.526295555	19.0
6.615	522.632453484	17.0
6.6253	522.739152877	19.0
6.6355	522.844324202	12.0
6.6458	522.950031959	12.0
6.656	523.054225848	15.0
6.6662	523.157936793	10.0
6.6765	523.262176722	15.0
6.6867	523.364923805	16.0
6.697	523.468194955	13.0
6.7072	523.569987132	11.0
6.7174	523.671307498	9.0
6.7277	523.773144654	10.0
6.7379	523.873523374	21.0
6.7482	523.974414082	6.0
6.7584	524.073859908	10.0
6.7686	524.172844798	16.0
6.7789	524.272334565	13.0
6.7891	524.370399515	10.0
6.7994	524.46896465	10.0
6.8096	524.56611821	7.0
6.8198	524.662821457	12.0
6.8301	524.760017945	14.0
6.8403	524.855822458	10.0
6.8506	524.952115627	15.0
6.8608	525.047029757	15.0
6.871	525.141503955	10.0
6.8813	525.236460024	17.0
6.8915	525.330056203	20.0
6.9018	525.424129775	11.0
6.912	525.516856095	8.0
6.9222	525.609152625	11.0
6.9325	525.701919918	9.0
6.9427	525.793358667	5.0
6.953	525.885263804	11.0
6.9632	525.975852745	14.0
6.9734	526.066021802	9.0
6.9837	526.156650771	11.0
6.9939	526.245981819	8.0
7.0042	526.335768506	16.0
7.0144	526.424269334	8.0
7.0246	526.512359957	9.0
7.0349	526.600899891	13.0
7.0451	526.688171823	10.0
7.0554	526.775888889	10.0
7.0656	526.862349738	8.0
7.0758	526.948409836	5.0
7.0861	527.034908888	8.0
7.0963	527.120169166	8.0
7.1066	527.205864318	8.0
7.1168	527.290332209	5.0
7.127	527.374408586	12.0
7.1373	527.4589138	15.0
7.1475	527.542208793	10.0
7.1578	527.625928637	7.0
7.168	527.708449508	7.0
7.1782	527.790587891	8.0
7.1885	527.873145225	9.0
7.1987	527.954520235	13.0
7.209	528.036310302	8.0
7.2192	528.116929034	10.0
7.2294	528.197174093	6.0
7.2397	528.277828447	9.0
7.2499	528.357327729	12.0
7.2602	528.437232502	10.0
7.2704	528.515992939	6.0
7.2806	528.594388317	6.0
7.2909	528.673183554	8.0
7.3011	528.750850346	3.0
7.3114	528.828913281	7.0
7.3216	528.905858257	9.0
7.3318	528.98244659	4.0
7.3421	529.059425565	8.0
7.3523	529.135302105	10.0
7.3626	529.211565658	9.0
7.3728	529.286737021	9.0
7.383	529.361559961	8.0
7.3933	529.43676454	4.0
7.4035	529.510892095	8.0
7.4138	529.585397741	9.0
7.424	529.658836374	8.0
7.4342	529.731934614	9.0
7.4445	529.805405697	9.0
7.4547	529.877824581	10.0
7.465	529.950612842	5.0
7.4752	530.022358684	3.0
7.4854	530.09377198	8.0
7.4957	530.165549524	9.0
7.5059	530.236299123	6.0
7.5162	530.307409585	4.0
7.5264	530.377501656	7.0
7.5366	530.447268847	4.0
7.5469	530.517391889	7.0
7.5571	530.586510681	6.0
7.5674	530.655982018	2.0
7.5776	530.724458438	7.0
7.5878	530.792617466	5.0
7.5981	530.861124143	4.0
7.6083	530.928649719	6.0
7.6186	530.996519713	8.0
7.6288	531.063417723	5.0
7.639	531.130005658	6.0
7.6493	531.196933228	6.0
7.6595	531.262902312	10.0
7.6698	531.329207875	2.0
7.68	531.394563859	15.0
