TL-DOS Lehrstuhlversuch
detector=R1407205
job_number=2015-10-21-011
irradiation_dose [mSv]=3.0

[BEGIN DATA]
time [sec] 	 temperature [K] 	 photoncount 
0.0	119.136990613	0.0
0.0102	120.978569539	0.0
0.0205	122.83019241	1.0
0.0307	124.655939504	0.0
0.041	126.491644198	1.0
0.0512	128.301695564	0.0
0.0614	130.103987694	3.0
0.0717	131.9161095	0.0
0.0819	133.702907542	3.0
0.0922	135.499450756	1.0
0.1024	137.270887911	1.0
0.1126	139.034731359	0.0
0.1229	140.808194784	2.0
0.1331	142.556874683	1.0
0.1434	144.315091858	0.0
0.1536	146.048738566	2.0
0.1638	147.774953566	1.0
0.1741	149.510583318	2.0
0.1843	151.221958256	0.0
0.1946	152.942667009	0.0
0.2048	154.639329463	1.0
0.215	156.32871875	1.0
0.2253	158.027321943	2.0
0.2355	159.702187754	3.0
0.2458	161.386188261	0.0
0.256	163.046655453	0.0
0.2662	164.700004638	0.0
0.2765	166.362371168	0.0
0.2867	168.001506709	0.0
0.297	169.649582075	0.0
0.3072	171.274626166	0.0
0.3174	172.892704101	0.0
0.3277	174.519607011	0.0
0.3379	176.123774525	0.0
0.3482	177.736691147	0.0
0.3584	179.327067827	0.0
0.3686	180.91062696	0.0
0.3789	182.502822803	0.0
0.3891	184.07276827	0.0
0.3994	185.651276198	0.0
0.4096	187.207725033	0.0
0.4198	188.757501762	0.0
0.4301	190.315730952	0.0
0.4403	191.852184437	0.0
0.4506	193.397017719	0.0
0.4608	194.9202625	0.0
0.471	196.436977511	0.0
0.4813	197.961964666	0.0
0.4915	199.465640662	0.0
0.5018	200.977517686	0.0
0.512	202.468266761	0.0
0.5222	203.952625368	1.0
0.5325	205.445079647	0.0
0.5427	206.916677402	0.0
0.553	208.396301232	0.0
0.5632	209.855247839	0.0
0.5734	211.307940308	0.0
0.5837	212.768555741	0.0
0.5939	214.208759588	1.0
0.6042	215.656818287	0.0
0.6144	217.084640875	0.0
0.6246	218.506342746	0.0
0.6349	219.935798559	0.0
0.6451	221.34527823	0.0
0.6554	222.762445185	0.0
0.6656	224.159807729	1.0
0.6758	225.551180131	0.0
0.6861	226.950141059	1.0
0.6963	228.329552	0.0
0.7066	229.716486229	0.0
0.7168	231.084038541	0.0
0.727	232.445728499	1.0
0.7373	233.814845095	1.0
0.7475	235.164828768	0.0
0.7578	236.522175234	1.0
0.768	237.860553261	0.0
0.7782	239.193193997	0.0
0.7885	240.533102937	0.0
0.7987	241.854287121	0.0
0.809	243.182677025	1.0
0.8192	244.492503149	1.0
0.8294	245.796714375	1.0
0.8397	247.108038752	0.0
0.8499	248.401037833	0.0
0.8602	249.701088912	0.0
0.8704	250.982972236	0.0
0.8806	252.259360446	0.0
0.8909	253.542710061	0.0
0.9011	254.808125316	1.0
0.9114	256.08044213	0.0
0.9216	257.334978763	0.0
0.9318	258.584137512	1.0
0.9421	259.840109155	2.0
0.9523	261.078529038	0.0
0.9626	262.323703245	0.0
0.9728	263.551476581	1.0
0.983	264.77398676	0.0
0.9933	266.003164493	0.0
1.0035	267.2151649	0.0
1.0138	268.43377554	1.0
1.024	269.635356526	1.0
1.0342	270.831786635	0.0
1.0445	272.034742058	0.0
1.0547	273.220886601	0.0
1.065	274.413500361	0.0
1.0752	275.589447764	0.0
1.0854	276.760354174	0.0
1.0957	277.937646692	0.0
1.1059	279.098486962	0.0
1.1162	280.265658439	0.0
1.1264	281.416519105	0.0
1.1366	282.562446319	1.0
1.1469	283.714623405	0.0
1.1571	284.850699221	0.0
1.1674	285.99297118	0.0
1.1776	287.11928029	0.0
1.1878	288.240761195	0.0
1.1981	289.368358642	0.0
1.2083	290.480198311	2.0
1.2186	291.598101939	0.0
1.2288	292.700383257	2.0
1.239	293.79793937	0.0
1.2493	294.90148154	0.0
1.2595	295.989602097	1.0
1.2698	297.083657248	1.0
1.28	298.162423364	2.0
1.2902	299.236565079	0.0
1.3005	300.316565149	1.0
1.3107	301.381472597	0.0
1.321	302.452188037	0.0
1.3312	303.507940605	0.0
1.3414	304.559167426	4.0
1.3517	305.616127624	0.0
1.3619	306.658317176	1.0
1.3722	307.706190815	4.0
1.3824	308.739420788	2.0
1.3926	309.768221564	4.0
1.4029	310.802633405	3.0
1.4131	311.822589704	1.0
1.4234	312.848108831	1.0
1.4336	313.85929669	2.0
1.4438	314.866149839	1.0
1.4541	315.878494352	3.0
1.4643	316.876691706	3.0
1.4746	317.880333215	5.0
1.4848	318.869949187	4.0
1.495	319.855322924	3.0
1.5053	320.846070875	3.0
1.5155	321.822973473	0.0
1.5258	322.805204084	5.0
1.536	323.773708368	6.0
1.5462	324.738060916	2.0
1.5565	325.70767303	9.0
1.5667	326.663735156	2.0
1.577	327.625011632	5.0
1.5872	328.572854608	10.0
1.5974	329.516634418	5.0
1.6077	330.46556159	8.0
1.6179	331.401227839	5.0
1.6282	332.3419972	6.0
1.6384	333.269619639	8.0
1.6486	334.193265593	7.0
1.6589	335.1219491	5.0
1.6691	336.037654582	5.0
1.6794	336.958354308	11.0
1.6896	337.866187581	14.0
1.6998	338.770129199	13.0
1.7101	339.679000902	11.0
1.7203	340.575171444	10.0
1.7306	341.476229687	10.0
1.7408	342.364695959	17.0
1.751	343.249353598	16.0
1.7613	344.138836148	17.0
1.7715	345.015888492	17.0
1.7818	345.897724268	25.0
1.792	346.767236699	22.0
1.8022	347.633021748	24.0
1.8125	348.503528777	26.0
1.8227	349.361870777	21.0
1.833	350.224894162	24.0
1.8432	351.075857099	19.0
1.8534	351.923172172	34.0
1.8637	352.775108489	21.0
1.8739	353.615139296	27.0
1.8842	354.459751619	30.0
1.8944	355.292560783	40.0
1.9046	356.121799902	29.0
1.9149	356.95556168	47.0
1.9251	357.777671931	56.0
1.9354	358.604265959	43.0
1.9456	359.419308628	48.0
1.9558	360.230857412	46.0
1.9661	361.046832372	53.0
1.9763	361.85140437	54.0
1.9866	362.660364492	53.0
1.9968	363.458019681	78.0
2.007	364.252255522	58.0
2.0173	365.050823115	75.0
2.0275	365.838231007	69.0
2.0378	366.62993341	76.0
2.048	367.410572051	72.0
2.0582	368.18786429	70.0
2.0685	368.96939587	89.0
2.0787	369.740005821	86.0
2.089	370.514818669	96.0
2.0992	371.278803779	91.0
2.1094	372.039513877	103.0
2.1197	372.804372877	114.0
2.1299	373.558543242	111.0
2.1402	374.316826842	127.0
2.1504	375.064513695	140.0
2.1606	375.808995402	158.0
2.1709	376.557537503	166.0
2.1811	377.295618991	158.0
2.1914	378.037725965	176.0
2.2016	378.769462255	171.0
2.2118	379.498061775	205.0
2.2221	380.230635067	201.0
2.2323	380.952970906	235.0
2.2426	381.679246354	211.0
2.2528	382.395372358	221.0
2.263	383.108428509	217.0
2.2733	383.825373659	219.0
2.2835	384.532299753	220.0
2.2938	385.243081412	281.0
2.304	385.943930147	295.0
2.3142	386.64177452	262.0
2.3245	387.343424926	284.0
2.3347	388.035270015	292.0
2.345	388.730888417	321.0
2.3552	389.416785797	281.0
2.3654	390.099742907	322.0
2.3757	390.786424856	336.0
2.3859	391.463510666	356.0
2.3962	392.144289293	350.0
2.4064	392.815554278	323.0
2.4166	393.483941718	360.0
2.4269	394.155974534	369.0
2.4371	394.818615928	380.0
2.4474	395.48487136	353.0
2.4576	396.141816106	402.0
2.4678	396.795944694	421.0
2.4781	397.453640891	441.0
2.4883	398.102146015	442.0
2.4986	398.754188078	411.0
2.5088	399.397118082	460.0
2.519	400.037292005	454.0
2.5293	400.680957429	444.0
2.5395	401.315627855	460.0
2.5498	401.953759765	464.0
2.56	402.582974006	491.0
2.5702	403.209490964	483.0
2.5805	403.839424936	463.0
2.5907	404.460555802	453.0
2.601	405.085074308	526.0
2.6112	405.700865388	458.0
2.6214	406.314016725	459.0
2.6317	406.930512182	447.0
2.6419	407.538392331	478.0
2.6522	408.149587851	435.0
2.6624	408.752242128	437.0
2.6726	409.352312977	399.0
2.6829	409.955656605	488.0
2.6931	410.550568717	423.0
2.7034	411.148725473	405.0
2.7136	411.738523198	358.0
2.7238	412.325792608	376.0
2.7341	412.916264977	328.0
2.7443	413.498485703	342.0
2.7546	414.083881853	352.0
2.7648	414.661097297	339.0
2.775	415.235838364	313.0
2.7853	415.81371406	313.0
2.7955	416.383514147	314.0
2.8058	416.956421916	289.0
2.816	417.521323501	321.0
2.8262	418.083803493	291.0
2.8365	418.649351244	262.0
2.8467	419.206995665	253.0
2.857	419.76768147	255.0
2.8672	420.320531889	256.0
2.8774	420.871012376	261.0
2.8877	421.424495176	238.0
2.8979	421.970243249	254.0
2.9082	422.518967825	240.0
2.9184	423.060024168	297.0
2.9286	423.598761137	239.0
2.9389	424.140436371	253.0
2.9491	424.674541884	260.0
2.9594	425.211560402	251.0
2.9696	425.741074274	269.0
2.9798	426.268318253	252.0
2.9901	426.798437814	255.0
3.0003	427.32114914	296.0
3.0106	427.846711327	248.0
3.0208	428.364928967	279.0
3.031	428.880925138	275.0
3.0413	429.399735545	323.0
3.0515	429.91129576	310.0
3.0618	430.425646016	302.0
3.072	430.932808409	333.0
3.0822	431.437796724	347.0
3.0925	431.945539238	334.0
3.1027	432.446186229	350.0
3.113	432.949563742	362.0
3.1232	433.445906732	362.0
3.1334	433.940122023	373.0
3.1437	434.437032758	370.0
3.1539	434.92699934	340.0
3.1642	435.419638193	397.0
3.1744	435.905392592	387.0
3.1846	436.389064683	428.0
3.1949	436.875374715	393.0
3.2051	437.354888736	461.0
3.2154	437.83701802	437.0
3.2256	438.312409716	455.0
3.2358	438.785763528	495.0
3.2461	439.261699004	478.0
3.2563	439.73098345	473.0
3.2666	440.202827367	449.0
3.2768	440.668077431	474.0
3.287	441.131333085	522.0
3.2973	441.597115329	456.0
3.3075	442.05638843	497.0
3.3178	442.5181664	490.0
3.328	442.973491185	465.0
3.3382	443.426864107	482.0
3.3485	443.882709719	499.0
3.3587	444.332185049	526.0
3.369	444.784111811	508.0
3.3792	445.229723056	561.0
3.3894	445.673424077	543.0
3.3997	446.119545037	495.0
3.4099	446.559431614	513.0
3.4202	447.001717326	528.0
3.4304	447.437822251	545.0
3.4406	447.872057704	522.0
3.4509	448.308661471	541.0
3.4611	448.739163853	503.0
3.4714	449.17201419	504.0
3.4816	449.598815596	530.0
3.4918	450.023787411	513.0
3.5021	450.451077017	507.0
3.5123	450.8723954	537.0
3.5226	451.296011649	526.0
3.5328	451.713708009	487.0
3.543	452.12961381	507.0
3.5533	452.547787955	517.0
3.5635	452.960118264	487.0
3.5738	453.374697417	516.0
3.584	453.783482972	492.0
3.5942	454.190516166	471.0
3.6045	454.599769313	452.0
3.6147	455.003303291	455.0
3.625	455.409038139	470.0
3.6352	455.809102984	448.0
3.6454	456.207452852	462.0
3.6557	456.607975315	473.0
3.6659	457.002900617	476.0
3.6762	457.399979836	411.0
3.6864	457.791510013	430.0
3.6966	458.181361798	455.0
3.7069	458.57333983	416.0
3.7171	458.959840106	437.0
3.7274	459.34844835	436.0
3.7376	459.73162593	439.0
3.7478	460.113160924	431.0
3.7581	460.496776805	420.0
3.7683	460.875031789	444.0
3.7786	461.25534977	407.0
3.7888	461.630352941	423.0
3.799	462.003748568	428.0
3.8093	462.379180689	429.0
3.8195	462.749366279	446.0
3.8298	463.121570855	425.0
3.84	463.488574004	427.0
3.8502	463.854003902	451.0
3.8605	464.22142685	414.0
3.8707	464.583715192	376.0
3.881	464.947979449	433.0
3.8912	465.307153241	423.0
3.9014	465.664787345	438.0
3.9117	466.024371981	398.0
3.9219	466.378931548	438.0
3.9322	466.735424878	404.0
3.9424	467.08693634	419.0
3.9526	467.436940959	436.0
3.9629	467.7888545	398.0
3.9731	468.135850172	421.0
3.9834	468.484738354	452.0
3.9936	468.828750946	420.0
4.0038	469.171288843	399.0
4.0141	469.515694936	418.0
4.0243	469.855288076	438.0
4.0346	470.196733352	430.0
4.0448	470.53340705	418.0
4.055	470.868637513	429.0
4.0653	471.205696318	451.0
4.0755	471.538044845	434.0
4.0858	471.872205996	432.0
4.096	472.201697363	437.0
4.1062	472.529776282	397.0
4.1165	472.85964454	457.0
4.1267	473.184903005	448.0
4.137	473.511935425	462.0
4.1472	473.834397682	445.0
4.1574	474.155477624	427.0
4.1677	474.478308732	406.0
4.1779	474.796628389	439.0
4.1882	475.116684157	416.0
4.1984	475.432267258	454.0
4.2086	475.746497533	402.0
4.2189	476.062441616	451.0
4.2291	476.373970492	449.0
4.2394	476.687198442	407.0
4.2496	476.996049141	402.0
4.2598	477.303575875	400.0
4.2701	477.612779856	411.0
4.2803	477.91766282	427.0
4.2906	478.224208611	426.0
4.3008	478.526470533	374.0
4.311	478.827436733	431.0
4.3213	479.130044399	425.0
4.3315	479.42842323	395.0
4.3418	479.728429415	425.0
4.352	480.024243118	414.0
4.3622	480.318788743	420.0
4.3725	480.614940815	394.0
4.3827	480.906954266	416.0
4.393	481.200560355	386.0
4.4032	481.490063402	403.0
4.4134	481.778325422	410.0
4.4237	482.068159619	393.0
4.4339	482.353943485	374.0
4.4442	482.641286013	404.0
4.4544	482.92461303	346.0
4.4646	483.206725494	381.0
4.4749	483.490376597	376.0
4.4851	483.770063775	360.0
4.4954	484.051276363	369.0
4.5056	484.328559104	384.0
4.5158	484.604653203	378.0
4.5261	484.882253116	366.0
4.5363	485.155973668	356.0
4.5466	485.431187088	371.0
4.5568	485.702554498	363.0
4.567	485.972758623	368.0
4.5773	486.244436438	361.0
4.5875	486.512317651	361.0
4.5978	486.781659884	407.0
4.608	487.047238155	333.0
4.6182	487.311677958	352.0
4.6285	487.577560012	352.0
4.6387	487.839726458	358.0
4.649	488.103322756	341.0
4.6592	488.363235389	372.0
4.6694	488.622033841	366.0
4.6797	488.882243777	368.0
4.6899	489.13881737	315.0
4.7002	489.396790312	375.0
4.7104	489.651158173	339.0
4.7206	489.904435623	333.0
4.7309	490.159094445	360.0
4.7411	490.410194499	356.0
4.7514	490.662664049	333.0
4.7616	490.911605427	313.0
4.7718	491.159479655	347.0
4.7821	491.408705785	325.0
4.7923	491.654449069	336.0
4.8026	491.901532632	328.0
4.8128	492.14516329	339.0
4.823	492.387749564	325.0
4.8333	492.631658901	360.0
4.8435	492.87215969	360.0
4.8538	493.113972168	336.0
4.864	493.352405401	343.0
4.8742	493.58981653	334.0
4.8845	493.828522497	341.0
4.8947	494.063892632	352.0
4.905	494.300546472	329.0
4.9152	494.533893158	367.0
4.9254	494.766239546	321.0
4.9357	494.999853147	337.0
4.9459	495.230202081	348.0
4.9562	495.461807334	347.0
4.9664	495.690175986	341.0
4.9766	495.917565678	341.0
4.9869	496.146195551	329.0
4.9971	496.371630401	337.0
5.0074	496.598294771	314.0
5.0176	496.821791585	350.0
5.0278	497.044330325	337.0
5.0381	497.268082788	350.0
5.0483	497.488708388	351.0
5.0586	497.710537278	337.0
5.0688	497.929266188	354.0
5.079	498.147057461	351.0
5.0893	498.366036565	373.0
5.0995	498.581955513	324.0
5.1098	498.79905208	347.0
5.12	499.013114799	346.0
5.1302	499.226259884	350.0
5.1405	499.44056746	323.0
5.1507	499.651880163	345.0
5.161	499.864345363	355.0
5.1712	500.073841436	336.0
5.1814	500.282439452	317.0
5.1917	500.492175159	357.0
5.2019	500.698979883	338.0
5.2122	500.906912517	322.0
5.2224	501.111939366	368.0
5.2326	501.316087316	298.0
5.2429	501.521348687	357.0
5.2531	501.723741602	342.0
5.2634	501.927238365	327.0
5.2736	502.127891332	335.0
5.2838	502.327684151	341.0
5.2941	502.528566636	300.0
5.3043	502.72664186	279.0
5.3146	502.925797383	292.0
5.3248	503.122169778	302.0
5.335	503.317700374	274.0
5.3453	503.514297391	311.0
5.3555	503.708147033	294.0
5.3658	503.903053929	302.0
5.376	504.09523707	268.0
5.3862	504.28659637	266.0
5.3965	504.478999341	266.0
5.4067	504.668713548	260.0
5.417	504.859462453	262.0
5.4272	505.04754571	265.0
5.4374	505.234822701	261.0
5.4477	505.423121098	251.0
5.4579	505.608788092	284.0
5.4682	505.79546771	253.0
5.4784	505.979538547	240.0
5.4886	506.162820318	270.0
5.4989	506.347101705	247.0
5.5091	506.528807825	229.0
5.5194	506.711504968	220.0
5.5296	506.891648982	220.0
5.5398	507.071020764	203.0
5.5501	507.251370837	199.0
5.5603	507.429200582	222.0
5.5706	507.608000207	202.0
5.5808	507.784301171	208.0
5.591	507.959846376	193.0
5.6013	508.136349003	186.0
5.6115	508.310385068	154.0
5.6218	508.485370323	178.0
5.632	508.65791022	197.0
5.6422	508.829710483	164.0
5.6525	509.002447741	165.0
5.6627	509.172771057	160.0
5.673	509.344023315	149.0
5.6832	509.512882382	145.0
5.6934	509.681017592	154.0
5.7037	509.85006981	145.0
5.7139	510.016759583	156.0
5.7242	510.184358479	143.0
5.7344	510.34961524	134.0
5.7446	510.514163586	150.0
5.7549	510.679609377	106.0
5.7651	510.842743121	123.0
5.7754	511.006766594	112.0
5.7856	511.168497897	123.0
5.7958	511.329535899	119.0
5.8061	511.491452199	102.0
5.8163	511.651105777	104.0
5.8266	511.811630102	108.0
5.8368	511.969911157	99.0
5.847	512.1275137	92.0
5.8573	512.285975806	82.0
5.8675	512.442223459	84.0
5.8778	512.599323285	88.0
5.888	512.754227697	72.0
5.8982	512.908468071	96.0
5.9085	513.063549671	78.0
5.9187	513.21646406	80.0
5.929	513.370212442	58.0
5.9392	513.521812244	76.0
5.9494	513.672762176	57.0
5.9597	513.824535387	65.0
5.9699	513.974187621	59.0
5.9802	514.124656056	44.0
5.9904	514.273021747	61.0
6.0006	514.420751432	54.0
6.0109	514.569286833	62.0
6.0211	514.715746503	46.0
6.0314	514.863004963	58.0
6.0416	515.008205538	64.0
6.0518	515.152783674	60.0
6.0621	515.298150337	36.0
6.0723	515.441485552	41.0
6.0826	515.585602516	35.0
6.0928	515.727705496	33.0
6.103	515.869199316	41.0
6.1133	516.011464841	40.0
6.1235	516.151742256	36.0
6.1338	516.292784741	27.0
6.144	516.431856208	20.0
6.1542	516.57033151	33.0
6.1645	516.709562054	24.0
6.1747	516.846846901	33.0
6.185	516.984880497	30.0
6.1952	517.120985123	23.0
6.2054	517.256506302	28.0
6.2157	517.392766611	27.0
6.2259	517.527122731	16.0
6.2362	517.662211627	19.0
6.2464	517.795412704	18.0
6.2566	517.92804278	25.0
6.2669	518.06139622	16.0
6.2771	518.192886092	13.0
6.2874	518.325093108	15.0
6.2976	518.455452577	20.0
6.3078	518.585253228	18.0
6.3181	518.71576181	18.0
6.3283	518.844446581	12.0
6.3386	518.973833197	14.0
6.3488	519.10141168	7.0
6.359	519.228443266	13.0
6.3693	519.35616768	17.0
6.3795	519.482107191	16.0
6.3898	519.608733575	7.0
6.4	519.733590399	13.0
6.4102	519.857911993	7.0
6.4205	519.982911635	12.0
6.4307	520.106164452	7.0
6.441	520.230089488	14.0
6.4512	520.352282715	17.0
6.4614	520.47395213	12.0
6.4717	520.596285128	17.0
6.4819	520.716908566	6.0
6.4922	520.838189883	5.0
6.5024	520.957776335	13.0
6.5126	521.076850151	8.0
6.5229	521.196573393	10.0
6.5331	521.314623546	10.0
6.5434	521.433317542	8.0
6.5536	521.550352832	6.0
6.5638	521.66688642	15.0
6.5741	521.784055581	11.0
6.5843	521.899587345	11.0
6.5946	522.015749217	11.0
6.6048	522.130287767	5.0
6.615	522.24433532	5.0
6.6253	522.359004886	13.0
6.6355	522.472071986	9.0
6.6458	522.585755752	7.0
6.656	522.697850827	10.0
6.6662	522.809465379	8.0
6.6765	522.921688675	4.0
6.6867	523.03234369	4.0
6.697	523.143602216	3.0
6.7072	523.253305944	7.0
6.7174	523.362539399	3.0
6.7277	523.472368611	8.0
6.7379	523.580662999	6.0
6.7482	523.689548023	5.0
6.7584	523.796911418	6.0
6.7686	523.903814572	7.0
6.7789	524.011300775	8.0
6.7891	524.117284895	3.0
6.7994	524.223847052	1.0
6.8096	524.32892004	3.0
6.8198	524.433542607	9.0
6.8301	524.538735783	4.0
6.8403	524.642458922	2.0
6.8506	524.746747766	2.0
6.8608	524.849579209	3.0
6.871	524.95196984	5.0
6.8813	525.054918909	7.0
6.8915	525.1564293	7.0
6.9018	525.258493327	4.0
6.912	525.359131046	2.0
6.9222	525.459337356	3.0
6.9325	525.560090189	3.0
6.9427	525.659435038	2.0
6.953	525.759321711	4.0
6.9632	525.857812504	2.0
6.9734	525.955881091	6.0
6.9837	526.054484543	3.0
6.9939	526.151710047	5.0
7.0042	526.249465817	2.0
7.0144	526.345855484	6.0
7.0246	526.441831954	2.0
7.0349	526.538331877	4.0
7.0451	526.633483248	4.0
7.0554	526.729153574	3.0
7.0656	526.82348694	1.0
7.0758	526.917415923	3.0
7.0861	527.011857193	1.0
7.0963	527.10497868	3.0
7.1066	527.198608049	4.0
7.1168	527.290928982	4.0
7.127	527.382854158	4.0
7.1373	527.475280692	0.0
7.1475	527.566415598	4.0
7.1578	527.658047553	4.0
7.168	527.748398983	8.0
7.1782	527.8383631	0.0
7.1885	527.928817879	5.0
7.1987	528.018008585	3.0
7.209	528.107685735	2.0
7.2192	528.196109679	1.0
7.2294	528.284154572	3.0
7.2397	528.37267966	3.0
7.2499	528.459967642	2.0
7.2602	528.547731691	5.0
7.2704	528.634269268	5.0
7.2806	528.72043588	3.0
7.2909	528.807072444	3.0
7.3011	528.892498292	1.0
7.3114	528.978390052	3.0
7.3216	529.063081505	1.0
7.3318	529.147409906	4.0
7.3421	529.232198234	2.0
7.3523	529.315801674	0.0
7.3626	529.399861087	4.0
7.3728	529.482745798	3.0
7.383	529.565275204	5.0
7.3933	529.648254724	3.0
7.4035	529.730074635	0.0
7.4138	529.81234079	6.0
7.424	529.893457304	3.0
7.4342	529.974226093	4.0
7.4445	530.055435393	4.0
7.4547	530.135509822	3.0
7.465	530.216020976	4.0
7.4752	530.295407014	0.0
7.4854	530.374452745	3.0
7.4957	530.45392959	2.0
7.5059	530.532295774	0.0
7.5162	530.611089366	1.0
7.5264	530.688781845	1.0
7.5366	530.766141277	2.0
7.5469	530.843922625	2.0
7.5571	530.920617006	3.0
7.5674	530.997729678	3.0
7.5776	531.073764727	3.0
7.5878	531.149473833	4.0
7.5981	531.225595856	2.0
7.6083	531.3006541	2.0
7.6186	531.37612171	3.0
7.6288	531.450534687	0.0
7.639	531.524628675	1.0
7.6493	531.59912677	1.0
7.6595	531.67258378	3.0
7.6698	531.746441424	1.0
7.68	531.819266934	2.0
7.6902	531.891780258	8.0
7.7005	531.96468907	6.0
7.7107	532.036579006	1.0
7.721	532.108861029	0.0
7.7312	532.180132936	1.0
7.7414	532.251099319	5.0
7.7517	532.322452751	5.0
7.7619	532.392809044	4.0
7.7722	532.463549059	5.0
7.7824	532.533300508	2.0
7.7926	532.602752949	4.0
7.8029	532.672584183	1.0
7.8131	532.741439551	2.0
7.8234	532.810670454	3.0
7.8336	532.87893388	2.0
7.8438	532.946904678	2.0
7.8541	533.015246187	0.0
