TL-DOS Lehrstuhlversuch
detector=R1408206
job_number=2015-10-26-012
irradiation_dose [mSv]=0.5

[BEGIN DATA]
time [sec] 	 temperature [K] 	 photoncount 
0.0	250.226001417	0.0
0.0102	250.936163756	0.0
0.0205	251.651888789	0.0
0.0307	252.359281643	3.0
0.041	253.072215497	1.0
0.0512	253.776849666	2.0
0.0614	254.480115232	3.0
0.0717	255.188889469	1.0
0.0819	255.889412445	1.0
0.0922	256.59542261	1.0
0.1024	257.293213693	0.0
0.1126	257.989649464	0.0
0.1229	258.691540408	1.0
0.1331	259.385260224	1.0
0.1434	260.08441394	3.0
0.1536	260.775428393	2.0
0.1638	261.465100696	1.0
0.1741	262.160175195	1.0
0.1843	262.84715792	0.0
0.1946	263.539521773	1.0
0.2048	264.223825408	0.0
0.215	264.906799928	0.0
0.2253	265.595124179	0.0
0.2355	266.275435241	1.0
0.2458	266.961075171	2.0
0.256	267.63873316	1.0
0.2662	268.315074943	0.0
0.2765	268.996714502	0.0
0.2867	269.670418692	0.0
0.297	270.349399999	0.0
0.3072	271.020476883	0.0
0.3174	271.690250342	0.0
0.3277	272.365270128	0.0
0.3379	273.032431609	1.0
0.3482	273.704818959	0.0
0.3584	274.369378649	0.0
0.3686	275.032647573	1.0
0.3789	275.701111874	0.0
0.3891	276.361794187	0.0
0.3994	277.027651617	0.0
0.4096	277.685757406	1.0
0.4198	278.342584963	0.0
0.4301	279.004557444	0.0
0.4403	279.65882351	0.0
0.4506	280.318214436	0.0
0.4608	280.969929001	0.0
0.471	281.620377748	0.0
0.4813	282.275921453	0.0
0.4915	282.923833585	0.0
0.5018	283.576820806	0.0
0.512	284.222206216	0.0
0.5222	284.866338101	0.0
0.5325	285.515515464	0.0
0.5427	286.157135368	0.0
0.553	286.803781075	0.0
0.5632	287.442898795	0.0
0.5734	288.080775164	0.0
0.5837	288.723648012	0.0
0.5939	289.359036796	0.0
0.6042	289.999402573	0.0
0.6144	290.632313473	0.0
0.6246	291.263995077	0.0
0.6349	291.900624636	0.0
0.6451	292.529842814	0.0
0.6554	293.16398965	0.0
0.6656	293.790754007	0.0
0.6758	294.416301007	0.0
0.6861	295.04674791	0.0
0.6963	295.669855407	0.0
0.7066	296.297843697	0.0
0.7168	296.918521204	1.0
0.727	297.537993177	0.0
0.7373	298.162317466	0.0
0.7475	298.779373626	0.0
0.7578	299.40126318	0.0
0.768	300.01591295	1.0
0.7782	300.629368892	0.0
0.7885	301.247630028	0.0
0.7987	301.858693619	0.0
0.809	302.474543665	0.0
0.8192	303.083224236	0.0
0.8294	303.690722573	0.0
0.8397	304.302979438	0.0
0.8499	304.908108658	0.0
0.8602	305.517977849	0.0
0.8704	306.120747191	0.0
0.8806	306.722345781	0.0
0.8909	307.328656686	0.0
0.9011	307.927909166	0.0
0.9114	308.531855585	0.0
0.9216	309.128771105	0.0
0.9318	309.724527243	0.0
0.9421	310.324949933	0.0
0.9523	310.918382746	0.0
0.9626	311.516463911	0.0
0.9728	312.10758246	0.0
0.983	312.697552886	0.0
0.9933	313.292144543	0.0
1.0035	313.879814207	0.0
1.0138	314.47208708	0.0
1.024	315.057464955	0.0
1.0342	315.641705856	0.0
1.0445	316.23052311	0.0
1.0547	316.812485593	0.0
1.065	317.399006582	0.0
1.0752	317.978699533	0.0
1.0854	318.557266552	0.0
1.0957	319.140365481	0.0
1.1059	319.716676209	0.0
1.1162	320.297501173	0.0
1.1264	320.87156441	0.0
1.1366	321.44451265	1.0
1.1469	322.021948787	0.0
1.1571	322.592662648	0.0
1.1674	323.167846904	0.0
1.1776	323.7363351	1.0
1.1878	324.303719128	1.0
1.1981	324.875547468	1.0
1.2083	325.440718815	0.0
1.2186	326.010317144	0.0
1.2288	326.573284441	0.0
1.239	327.135158293	0.0
1.2493	327.701433296	0.0
1.2595	328.261115957	0.0
1.2698	328.825182606	0.0
1.28	329.382682621	0.0
1.2902	329.93909981	0.0
1.3005	330.499875408	0.0
1.3107	331.054122685	1.0
1.321	331.612711375	0.0
1.3312	332.164797204	0.0
1.3414	332.715810722	0.0
1.3517	333.271140323	0.0
1.3619	333.820005003	0.0
1.3722	334.373168934	0.0
1.3824	334.919893156	1.0
1.3926	335.465555482	1.0
1.4029	336.015491975	1.0
1.4131	336.559026331	1.0
1.4234	337.106818185	0.0
1.4336	337.648232871	0.0
1.4438	338.188595972	0.0
1.4541	338.733191732	0.0
1.4643	339.271447529	0.0
1.4746	339.813919479	1.0
1.4848	340.350076191	0.0
1.495	340.885191532	0.0
1.5053	341.424498425	0.0
1.5155	341.957526928	0.0
1.5258	342.494730637	0.0
1.536	343.025680439	1.0
1.5462	343.555598983	0.0
1.5565	344.089668373	1.0
1.5667	344.617520346	0.0
1.577	345.149506976	0.0
1.5872	345.675300436	1.0
1.5974	346.200072652	0.0
1.6077	346.728955404	0.0
1.6179	347.251681118	1.0
1.6282	347.778501336	0.0
1.6384	348.299188529	2.0
1.6486	348.818864396	0.0
1.6589	349.342610879	1.0
1.6691	349.860260119	0.0
1.6794	350.381964099	2.0
1.6896	350.897594615	1.0
1.6998	351.412223627	0.0
1.7101	351.930883722	0.0
1.7203	352.443505788	2.0
1.7306	352.960143217	1.0
1.7408	353.470766164	1.0
1.751	353.980397333	1.0
1.7613	354.494020437	2.0
1.7715	355.001664151	1.0
1.7818	355.513284232	1.0
1.792	356.018948241	1.0
1.8022	356.523630104	1.0
1.8125	357.032265135	4.0
1.8227	357.534978844	1.0
1.833	358.041630304	1.0
1.8432	358.542383534	1.0
1.8534	359.042164157	4.0
1.8637	359.545859555	0.0
1.8739	360.043691137	5.0
1.8842	360.545422229	1.0
1.8944	361.041312371	4.0
1.9046	361.536239352	1.0
1.9149	362.03504309	2.0
1.9251	362.528039959	2.0
1.9354	363.024898466	3.0
1.9456	363.515972749	5.0
1.9558	364.006093224	2.0
1.9661	364.500052808	2.0
1.9763	364.988261915	3.0
1.9866	365.480295159	6.0
1.9968	365.966600352	3.0
2.007	366.451961	4.0
2.0173	366.941123472	3.0
2.0275	367.424591315	4.0
2.0378	367.911846156	5.0
2.048	368.393428574	6.0
2.0582	368.87407562	7.0
2.0685	369.35848757	4.0
2.0787	369.837260193	9.0
2.089	370.319783036	9.0
2.0992	370.796688545	5.0
2.1094	371.272667766	4.0
2.1197	371.752375327	12.0
2.1299	372.226498328	8.0
2.1402	372.704335129	3.0
2.1504	373.176609149	5.0
2.1606	373.647965876	10.0
2.1709	374.123014736	2.0
2.1811	374.59253327	9.0
2.1914	375.065729537	11.0
2.2016	375.533417047	12.0
2.2118	376.000196172	12.0
2.2221	376.470631573	6.0
2.2323	376.935590357	9.0
2.2426	377.404191158	16.0
2.2528	377.867336699	13.0
2.263	378.329582678	7.0
2.2733	378.795449424	14.0
2.2835	379.25589274	18.0
2.2938	379.719942703	26.0
2.304	380.178590386	18.0
2.3142	380.636347242	14.0
2.3245	381.097689703	17.0
2.3347	381.553661402	23.0
2.345	382.013204723	28.0
2.3552	382.467398228	19.0
2.3654	382.920709558	24.0
2.3757	383.377571671	19.0
2.3859	383.829115181	21.0
2.3962	384.284195626	28.0
2.4064	384.733978211	31.0
2.4166	385.182887187	35.0
2.4269	385.635312463	28.0
2.4371	386.082470788	36.0
2.4474	386.533131699	27.0
2.4576	386.9785462	19.0
2.4678	387.423095577	26.0
2.4781	387.871127104	28.0
2.4883	388.313942831	29.0
2.4986	388.760227128	33.0
2.5088	389.201315966	41.0
2.519	389.641548082	28.0
2.5293	390.085228531	42.0
2.5395	390.523743833	52.0
2.5498	390.96569402	35.0
2.56	391.402499204	54.0
2.5702	391.838455986	49.0
2.5805	392.277827612	43.0
2.5907	392.712084253	49.0
2.601	393.149742421	61.0
2.6112	393.582305552	50.0
2.6214	394.014028519	43.0
2.6317	394.449133168	48.0
2.6419	394.879172507	50.0
2.6522	395.312580338	39.0
2.6624	395.740942612	59.0
2.6726	396.168472883	62.0
2.6829	396.599351994	61.0
2.6931	397.025214985	54.0
2.7034	397.454413757	65.0
2.7136	397.878615972	61.0
2.7238	398.301994263	75.0
2.7341	398.728688872	60.0
2.7443	399.150416076	59.0
2.7546	399.575446665	70.0
2.7648	399.995529221	86.0
2.775	400.414795855	74.0
2.7853	400.8373466	73.0
2.7955	401.254978181	70.0
2.8058	401.675881066	77.0
2.816	402.091883971	81.0
2.8262	402.507078879	72.0
2.8365	402.925526003	84.0
2.8467	403.339101737	65.0
2.857	403.755917004	82.0
2.8672	404.167879879	75.0
2.8774	404.579042602	82.0
2.8877	404.993425958	83.0
2.8979	405.402985233	80.0
2.9082	405.81575258	86.0
2.9184	406.223714659	81.0
2.9286	406.630884357	86.0
2.9389	407.04124341	86.0
2.9491	407.446825231	83.0
2.9594	407.85558397	85.0
2.9696	408.259584107	85.0
2.9798	408.662799558	93.0
2.9901	409.069173391	82.0
3.0003	409.470816386	81.0
3.0106	409.875605446	73.0
3.0208	410.275682117	82.0
3.031	410.674981723	78.0
3.0413	411.077409039	53.0
3.0515	411.47515146	71.0
3.0618	411.876009393	77.0
3.072	412.272200701	63.0
3.0822	412.667622491	53.0
3.0925	413.066141616	69.0
3.1027	413.460021343	54.0
3.113	413.856986326	64.0
3.1232	414.249330005	55.0
3.1334	414.640911639	50.0
3.1437	415.035560527	57.0
3.1539	415.425615074	60.0
3.1642	415.818724914	43.0
3.1744	416.207258329	54.0
3.1846	416.5950371	43.0
3.1949	416.985853338	52.0
3.2051	417.372119853	44.0
3.2154	417.761411988	51.0
3.2256	418.146172144	43.0
3.2358	418.530184984	37.0
3.2461	418.917205793	43.0
3.2563	419.299721063	46.0
3.2666	419.68523257	48.0
3.2768	420.06625611	55.0
3.287	420.446539593	38.0
3.2973	420.829801831	46.0
3.3075	421.208602287	39.0
3.3178	421.590369882	48.0
3.328	421.967693095	45.0
3.3382	422.344283437	48.0
3.3485	422.723823607	41.0
3.3587	423.098945325	36.0
3.369	423.477005368	38.0
3.3792	423.850664189	41.0
3.3894	424.223597257	37.0
3.3997	424.599451506	40.0
3.4099	424.970930213	56.0
3.4202	425.345318708	46.0
3.4304	425.715348725	47.0
3.4406	426.084660037	56.0
3.4509	426.45686416	49.0
3.4611	426.824735234	44.0
3.4714	427.195487839	44.0
3.4816	427.561924293	50.0
3.4918	427.927649021	47.0
3.5021	428.296238467	47.0
3.5123	428.660536945	47.0
3.5226	429.027688969	55.0
3.5328	429.390566759	46.0
3.543	429.752739735	52.0
3.5533	430.117749609	59.0
3.5635	430.478510186	54.0
3.5738	430.842096596	52.0
3.584	431.201450282	72.0
3.5942	431.560105999	61.0
3.6045	431.921571063	56.0
3.6147	432.278828097	72.0
3.625	432.638883522	71.0
3.6352	432.994747328	68.0
3.6454	433.349919944	51.0
3.6557	433.707874623	75.0
3.6659	434.06166214	63.0
3.6762	434.418220871	82.0
3.6864	434.77062869	82.0
3.6966	435.122352031	64.0
3.7069	435.476830417	60.0
3.7171	435.82718211	80.0
3.7274	436.180278105	82.0
3.7376	436.529263499	75.0
3.7478	436.877571064	82.0
3.7581	437.228606917	63.0
3.7683	437.575556154	66.0
3.7786	437.925223041	78.0
3.7888	438.270819248	77.0
3.799	438.615744208	87.0
3.8093	438.963370961	75.0
3.8195	439.306950785	69.0
3.8298	439.653221866	80.0
3.84	439.9954618	93.0
3.8502	440.337037005	76.0
3.8605	440.681287766	79.0
3.8707	441.021530899	73.0
3.881	441.364439153	71.0
3.8912	441.703355408	71.0
3.9014	442.041613391	68.0
3.9117	442.382520944	91.0
3.9219	442.719459791	87.0
3.9322	443.059037876	63.0
3.9424	443.394662731	71.0
3.9526	443.729635706	74.0
3.9629	444.06723252	84.0
3.9731	444.40089917	77.0
3.9834	444.737179427	89.0
3.9936	445.069544847	97.0
4.0038	445.401264716	88.0
4.0141	445.735582944	70.0
4.0243	446.066009176	82.0
4.0346	446.399023632	84.0
4.0448	446.728161269	82.0
4.055	447.056659627	73.0
4.0653	447.387731108	73.0
4.0755	447.71494839	103.0
4.0858	448.044728762	80.0
4.096	448.370669964	72.0
4.1062	448.695978095	68.0
4.1165	449.023834361	85.0
4.1267	449.347873858	69.0
4.137	449.674451552	96.0
4.1472	449.997227362	68.0
4.1574	450.319376248	64.0
4.1677	450.644048523	67.0
4.1779	450.964941096	62.0
4.1882	451.288347216	65.0
4.1984	451.607988375	70.0
4.2086	451.927008698	64.0
4.2189	452.248527903	76.0
4.2291	452.566304113	84.0
4.2394	452.886569461	63.0
4.2496	453.203106409	72.0
4.2598	453.519028552	63.0
4.2701	453.837425309	64.0
4.2803	454.152115421	79.0
4.2906	454.469270497	61.0
4.3008	454.782733384	65.0
4.311	455.095587434	60.0
4.3213	455.410892067	72.0
4.3315	455.722526052	62.0
4.3418	456.036601062	69.0
4.352	456.347019739	54.0
4.3622	456.656835494	72.0
4.3725	456.969078032	61.0
4.3827	457.277685569	61.0
4.393	457.588710426	54.0
4.4032	457.896114458	74.0
4.4134	458.202921423	64.0
4.4237	458.512131603	71.0
4.4339	458.817742085	52.0
4.4442	459.12574641	60.0
4.4544	459.430165074	62.0
4.4646	459.733992469	76.0
4.4749	460.040199741	65.0
4.4851	460.342842272	49.0
4.4954	460.647855399	54.0
4.5056	460.949317688	58.0
4.5158	461.25019445	65.0
4.5261	461.553427976	63.0
4.5363	461.853131381	64.0
4.5466	462.155182359	65.0
4.5568	462.453716983	73.0
4.567	462.751671767	62.0
4.5773	463.051960427	65.0
4.5875	463.348753249	65.0
4.5978	463.647870846	60.0
4.608	463.943506237	54.0
4.6182	464.23856742	66.0
4.6285	464.535939813	72.0
4.6387	464.829850318	64.0
4.649	465.126063021	66.0
4.6592	465.418827336	57.0
4.6694	465.711023018	80.0
4.6797	466.005507466	64.0
4.6899	466.296563646	58.0
4.7002	466.589899666	60.0
4.7104	466.879820787	55.0
4.7206	467.169178798	65.0
4.7309	467.460803347	65.0
4.7411	467.749032922	62.0
4.7514	468.039520196	62.0
4.7616	468.326625735	65.0
4.7718	468.613173633	63.0
4.7821	468.901966057	71.0
4.7923	469.187396477	58.0
4.8026	469.475062671	61.0
4.8128	469.759379972	67.0
4.823	470.043145047	59.0
4.8333	470.32913285	59.0
4.8435	470.6117913	70.0
4.8538	470.896663811	83.0
4.864	471.178219952	53.0
4.8742	471.459229229	69.0
4.8845	471.742439649	69.0
4.8947	472.022353049	62.0
4.905	472.304459007	58.0
4.9152	472.583280803	54.0
4.9254	472.861561046	66.0
4.9357	473.142021056	52.0
4.9459	473.419216064	49.0
4.9562	473.698582338	57.0
4.9664	473.974696343	48.0
4.9766	474.250274055	60.0
4.9869	474.528010364	63.0
4.9971	474.802513381	62.0
5.0074	475.079166576	62.0
5.0176	475.352599088	61.0
5.0278	475.625500515	51.0
5.0381	475.900539576	58.0
5.0483	476.172376744	73.0
5.0586	476.446343209	56.0
5.0688	476.717120269	63.0
5.079	476.987371401	51.0
5.0893	477.259739408	57.0
5.0995	477.528936617	63.0
5.1098	477.800242445	60.0
5.12	478.068389841	66.0
5.1302	478.336016418	56.0
5.1405	478.60573931	56.0
5.1507	478.872322198	61.0
5.161	479.140993227	53.0
5.1712	479.406536498	65.0
5.1814	479.671564007	58.0
5.1917	479.938667473	47.0
5.2019	480.20266143	60.0
5.2122	480.468723248	51.0
5.2224	480.731687684	64.0
5.2326	480.994141366	61.0
5.2429	481.258650845	53.0
5.2531	481.520081013	47.0
5.2634	481.78355896	48.0
5.2736	482.043969604	62.0
5.2838	482.303874455	45.0
5.2941	482.565815139	57.0
5.3043	482.824706416	77.0
5.3146	483.085625585	55.0
5.3248	483.343507239	67.0
5.335	483.600888013	63.0
5.3453	483.860284848	63.0
5.3555	484.11666189	46.0
5.3658	484.375047131	51.0
5.376	484.630424357	48.0
5.3862	484.885305566	46.0
5.3965	485.142183256	47.0
5.4067	485.396070482	54.0
5.417	485.651946403	56.0
5.4272	485.904843521	51.0
5.4374	486.157249439	40.0
5.4477	486.411632451	55.0
5.4579	486.663054039	60.0
5.4682	486.916445009	47.0
5.4784	487.166886105	77.0
5.4886	487.416840773	58.0
5.4989	487.668753332	56.0
5.5091	487.917733228	47.0
5.5194	488.168663381	57.0
5.5296	488.416672307	62.0
5.5398	488.664199528	52.0
5.5501	488.913665628	44.0
5.5603	489.160227544	53.0
5.5706	489.408720777	43.0
5.5808	489.654321154	45.0
5.591	489.899444503	48.0
5.6013	490.146487901	44.0
5.6115	490.390655321	53.0
5.6218	490.636735301	48.0
5.632	490.879950518	56.0
5.6422	491.122693341	54.0
5.6525	491.367337566	56.0
5.6627	491.609133743	49.0
5.673	491.852823906	53.0
5.6832	492.093677128	42.0
5.6934	492.334062543	52.0
5.7037	492.576330895	63.0
5.7139	492.815778857	48.0
5.7242	493.057102412	61.0
5.7344	493.295616577	53.0
5.7446	493.533667479	64.0
5.7549	493.77358303	51.0
5.7651	494.010705583	52.0
5.7754	494.249685514	55.0
5.7856	494.485883338	58.0
5.7958	494.721622397	53.0
5.8061	494.959207998	41.0
5.8163	495.194027724	57.0
5.8266	495.430686791	54.0
5.8368	495.664590769	65.0
5.847	495.898040438	60.0
5.8573	496.133318716	53.0
5.8675	496.365857979	50.0
5.8778	496.600218721	63.0
5.888	496.83185113	47.0
5.8982	497.063033642	57.0
5.9085	497.296027004	52.0
5.9187	497.526307952	49.0
5.929	497.758392689	58.0
5.9392	497.987775589	47.0
5.9494	498.216712962	54.0
5.9597	498.447443599	62.0
5.9699	498.675488163	53.0
5.9802	498.905318998	53.0
5.9904	499.132474237	53.0
6.0006	499.359188274	49.0
6.0109	499.587678159	52.0
6.0211	499.813508059	52.0
6.0314	500.041106882	58.0
6.0416	500.266056092	56.0
6.0518	500.490568385	56.0
6.0621	500.716839281	40.0
6.0723	500.940476023	48.0
6.0826	501.16586451	65.0
6.0928	501.388629115	60.0
6.103	501.610961048	49.0
6.1133	501.835034504	55.0
6.1235	502.056499388	48.0
6.1338	502.279699004	50.0
6.144	502.500300221	52.0
6.1542	502.720472967	46.0
6.1645	502.942370323	45.0
6.1747	503.161684441	44.0
6.185	503.382716444	45.0
6.1952	503.601175282	43.0
6.2054	503.819209811	47.0
6.2157	504.038952201	43.0
6.2259	504.25613644	46.0
6.2362	504.475021881	38.0
6.2464	504.691359146	43.0
6.2566	504.907276222	45.0
6.2669	505.124884575	46.0
6.2771	505.339959619	42.0
6.2874	505.556719344	51.0
6.2976	505.770955641	39.0
6.3078	505.984775828	39.0
6.3181	506.200270867	43.0
6.3283	506.413257201	51.0
6.3386	506.627911854	36.0
6.3488	506.840067585	47.0
6.359	507.051811248	38.0
6.3693	507.265213498	43.0
6.3795	507.476131405	41.0
6.3898	507.68870143	55.0
6.4	507.898796801	45.0
6.4102	508.108484106	31.0
6.4205	508.31981389	50.0
6.4307	508.528683458	48.0
6.441	508.7391891	44.0
6.4512	508.94724412	28.0
6.4614	509.154895038	43.0
6.4717	509.364172483	44.0
6.4819	509.571013605	37.0
6.4922	509.779474911	28.0
6.5024	509.985509396	27.0
6.5126	510.191143703	30.0
6.5229	510.39838874	32.0
6.5331	510.603221116	42.0
6.5434	510.809657941	15.0
6.5536	511.013691513	42.0
6.5638	511.217328792	27.0
6.5741	511.42256116	35.0
6.5843	511.625404297	39.0
6.5946	511.829836302	29.0
6.6048	512.031888392	26.0
6.615	512.233548039	32.0
6.6253	512.436787284	34.0
6.6355	512.6376605	28.0
6.6458	512.840107154	18.0
6.656	513.040197007	29.0
6.6662	513.239898227	27.0
6.6765	513.441163705	25.0
6.6867	513.640086132	24.0
6.697	513.840566716	26.0
6.7072	514.038713387	28.0
6.7174	514.2364752	29.0
6.7277	514.435786079	14.0
6.7379	514.632776662	27.0
6.7482	514.83131027	20.0
6.7584	515.027532631	25.0
6.7686	515.223373871	24.0
6.7789	515.420749134	18.0
6.7891	515.615826634	22.0
6.7994	515.812432174	22.0
6.8096	516.006748912	12.0
6.8198	516.200688231	13.0
6.8301	516.396146675	20.0
6.8403	516.589329671	16.0
6.8506	516.784025868	19.0
6.8608	516.97645549	22.0
6.871	517.168511359	27.0
6.8813	517.362071599	12.0
6.8915	517.55337849	16.0
6.9018	517.746183886	16.0
6.912	517.936744719	28.0
6.9222	518.126935429	12.0
6.9325	518.3186159	18.0
6.9427	518.508064906	12.0
6.953	518.698997863	12.0
6.9632	518.887708057	22.0
6.9734	519.076051721	13.0
6.9837	519.265870678	9.0
6.9939	519.453479841	13.0
7.0042	519.642558545	7.0
7.0144	519.829436071	20.0
7.0246	520.015950627	13.0
7.0349	520.203926149	12.0
7.0451	520.389713337	18.0
7.0554	520.576955794	13.0
7.0656	520.762018451	9.0
7.0758	520.946721662	3.0
7.0861	521.132871652	6.0
7.0963	521.316854559	15.0
7.1066	521.502278603	9.0
7.1168	521.685544015	7.0
7.127	521.868453473	11.0
7.1373	522.052795659	7.0
7.1475	522.234991808	7.0
7.1578	522.418615098	13.0
7.168	522.60010072	7.0
7.1782	522.781233844	8.0
7.1885	522.963785782	8.0
7.1987	523.144212526	7.0
7.209	523.326052549	8.0
7.2192	523.505775666	5.0
7.2294	523.685149708	4.0
7.2397	523.865928785	8.0
7.2499	524.044603305	7.0
7.2602	524.224677381	7.0
7.2704	524.402655108	11.0
7.2806	524.580287152	6.0
7.2909	524.759310584	5.0
7.3011	524.936249899	6.0
7.3114	525.114575178	3.0
7.3216	525.290824466	6.0
7.3318	525.466731428	8.0
7.3421	525.644016267	9.0
7.3523	525.819237227	4.0
7.3626	525.995830692	6.0
7.3728	526.170368328	1.0
7.383	526.344566961	6.0
7.3933	526.52013009	1.0
7.4035	526.693649385	3.0
7.4138	526.868527854	4.0
7.424	527.041370459	5.0
7.4342	527.213877355	1.0
7.4445	527.387735494	9.0
7.4547	527.559569649	4.0
7.465	527.732749778	5.0
7.4752	527.903913815	3.0
7.4854	528.074745401	2.0
7.4957	528.24691511	4.0
7.5059	528.417080489	4.0
7.5162	528.588578772	1.0
7.5264	528.758080541	3.0
7.5366	528.927253089	7.0
7.5469	529.097750764	4.0
7.5571	529.266263575	2.0
7.5674	529.436096344	1.0
7.5776	529.60395199	5.0
7.5878	529.771481611	3.0
7.5981	529.94032349	1.0
7.6083	530.10719978	4.0
7.6186	530.275383211	2.0
7.6288	530.441608719	6.0
7.639	530.607511369	3.0
7.6493	530.774713532	4.0
7.6595	530.939969197	5.0
7.6698	531.106519306	8.0
7.68	531.271130508	3.0
7.6902	531.435421987	5.0
7.7005	531.601000359	3.0
7.7107	531.764651135	2.0
7.721	531.929583786	4.0
7.7312	532.092596358	5.0
7.7414	532.255292313	0.0
7.7517	532.419262663	3.0
7.7619	532.581324138	0.0
7.7722	532.744655038	2.0
7.7824	532.906084506	1.0
7.7926	533.067200432	0.0
7.8029	533.229578377	2.0
7.8131	533.390065984	1.0
7.8234	533.551810689	1.0
7.8336	533.711672428	2.0
7.8438	533.871223669	3.0
7.8541	534.032024673	0.0
7.8643	534.190953697	0.0
7.8746	534.351127611	1.0
7.8848	534.509436846	0.0
7.895	534.667438598	1.0
7.9053	534.826677976	1.0
7.9155	534.984063554	2.0
7.9258	535.142681931	1.0
7.936	535.299453739	0.0
7.9462	535.45592105	3.0
7.9565	535.613613967	3.0
7.9667	535.769471088	1.0
7.977	535.926549036	0.0
7.9872	536.081798347	1.0
7.9974	536.236746119	0.0
