TL-DOS Lehrstuhlversuch
detector=R1407903
job_number=2015-11-04-002
irradiation_dose [mSv]=0.09

[BEGIN DATA]
time [sec] 	 temperature [K] 	 photoncount 
0.0	1.00000003435	0.0
0.0102	3.8389222402	0.0
0.0205	6.69046047411	0.0
0.0307	9.49932491648	0.0
0.041	12.3206718117	2.0
0.0512	15.0997967343	2.0
0.0614	17.8642419521	0.0
0.0717	20.6409722259	1.0
0.0819	23.376148223	4.0
0.0922	26.1234792053	1.0
0.1024	28.8296958765	0.0
0.1126	31.521617954	0.0
0.1229	34.2255027983	0.0
0.1331	36.8889235111	3.0
0.1434	39.564180332	0.0
0.1536	42.1994014451	1.0
0.1638	44.8207029723	1.0
0.1741	47.4536534321	1.0
0.1843	50.0472013064	1.0
0.1946	52.6522747775	0.0
0.2048	55.2183628474	2.0
0.215	57.7708965013	1.0
0.2253	60.3347734868	1.0
0.2355	62.860281584	0.0
0.2458	65.3970129127	0.0
0.256	67.8957815928	0.0
0.2662	70.3813514468	0.0
0.2765	72.8779670487	0.0
0.2867	75.3372203411	0.0
0.297	77.807402432	0.0
0.3072	80.2406177959	0.0
0.3174	82.6609805949	0.0
0.3277	85.0920993649	0.0
0.3379	87.4868359976	0.0
0.3482	89.8922147199	0.0
0.3584	92.2615965094	0.0
0.3686	94.6184629114	1.0
0.3789	96.9858031097	0.0
0.3891	99.3177156286	0.0
0.3994	101.65999105	0.0
0.4096	103.967213891	0.0
0.4198	106.262249676	0.0
0.4301	108.567484486	0.0
0.4403	110.838221034	1.0
0.4506	113.119048622	0.0
0.4608	115.365743208	0.0
0.471	117.600570456	1.0
0.4813	119.845329165	0.0
0.4915	122.056494648	0.0
0.5018	124.277486441	0.0
0.512	126.465240684	0.0
0.5222	128.641438921	0.0
0.5325	130.827308074	0.0
0.5427	132.980465295	0.0
0.553	135.143191038	0.0
0.5632	137.273551196	1.0
0.5734	139.392658509	0.0
0.5837	141.521183029	0.0
0.5939	143.617853791	0.0
0.6042	145.723842052	0.0
0.6144	147.798313813	0.0
0.6246	149.86182794	0.0
0.6349	151.934512221	0.0
0.6451	153.976178403	0.0
0.6554	156.026917646	0.0
0.6656	158.046967202	0.0
0.6758	160.056346589	0.0
0.6861	162.074655557	0.0
0.6963	164.062760162	0.0
0.7066	166.059699805	0.0
0.7168	168.02675488	0.0
0.727	169.983419711	0.0
0.7373	171.948779862	0.0
0.7475	173.884728038	0.0
0.7578	175.829279472	0.0
0.768	177.744730337	0.0
0.7782	179.650063538	0.0
0.7885	181.563863945	0.0
0.7987	183.449023977	0.0
0.809	185.342561567	0.0
0.8192	187.20776202	0.0
0.8294	189.063110238	0.0
0.8397	190.926703531	0.0
0.8499	192.762407809	0.0
0.8602	194.606269864	0.0
0.8704	196.422538187	0.0
0.8806	198.22921274	0.0
0.8909	200.043916065	0.0
0.9011	201.831462022	0.0
0.9114	203.626951744	1.0
0.9216	205.395571634	0.0
0.9318	207.15484944	0.0
0.9421	208.921945388	1.0
0.9523	210.662596422	0.0
0.9626	212.410982823	0.0
0.9728	214.1332043	0.0
0.983	215.846328777	0.0
0.9933	217.567066292	0.0
1.0035	219.262052656	0.0
1.0138	220.964571454	1.0
1.024	222.641611747	0.0
1.0342	224.309793692	0.0
1.0445	225.985388954	0.0
1.0547	227.635908626	1.0
1.065	229.293763124	0.0
1.0752	230.926807527	0.0
1.0854	232.551225973	3.0
1.0957	234.182863254	1.0
1.1059	235.790082784	0.0
1.1162	237.404444717	0.0
1.1264	238.994647429	2.0
1.1366	240.57645048	0.0
1.1469	242.165282984	0.0
1.1571	243.730338319	1.0
1.1674	245.302348682	0.0
1.1776	246.850833621	2.0
1.1878	248.391139259	0.0
1.1981	249.938289938	0.0
1.2083	251.462287224	1.0
1.2186	252.993057077	0.0
1.2288	254.50091868	1.0
1.239	256.000815558	0.0
1.2493	257.507377903	0.0
1.2595	258.991394267	1.0
1.2698	260.482005525	0.0
1.28	261.950309513	1.0
1.2902	263.410857725	0.0
1.3005	264.877896541	0.0
1.3107	266.322980852	0.0
1.321	267.774487045	1.0
1.3312	269.204271182	2.0
1.3414	270.626503011	2.0
1.3517	272.055055167	1.0
1.3619	273.462228779	1.0
1.3722	274.875655799	1.0
1.3824	276.267930625	1.0
1.3926	277.652851272	0.0
1.4029	279.043926437	0.0
1.4131	280.414183908	1.0
1.4234	281.790530734	0.0
1.4336	283.146280278	1.0
1.4438	284.494868573	0.0
1.4541	285.849449928	0.0
1.4643	287.183759725	1.0
1.4746	288.523999127	0.0
1.4848	289.844181602	0.0
1.495	291.157390698	2.0
1.5053	292.47643563	0.0
1.5155	293.775740813	0.0
1.5258	295.080820044	1.0
1.536	296.366368524	1.0
1.5462	297.645126568	2.0
1.5565	298.929567349	1.0
1.5667	300.194786238	0.0
1.577	301.465627697	1.0
1.5872	302.71745078	0.0
1.5974	303.962661569	1.0
1.6077	305.213406012	0.0
1.6179	306.445432836	1.0
1.6282	307.682934725	0.0
1.6384	308.901917172	1.0
1.6486	310.114460792	0.0
1.6589	311.332392896	0.0
1.6691	312.532098423	1.0
1.6794	313.737135381	1.0
1.6896	314.92413874	1.0
1.6998	316.104872192	3.0
1.7101	317.290852763	5.0
1.7203	318.459084918	2.0
1.7306	319.632508638	0.0
1.7408	320.788371858	1.0
1.751	321.938129655	1.0
1.7613	323.092996918	0.0
1.7715	324.230581382	1.0
1.7818	325.373221214	1.0
1.792	326.498761231	0.0
1.8022	327.618355998	1.0
1.8125	328.742926187	3.0
1.8227	329.850666978	2.0
1.833	330.963330514	3.0
1.8432	332.059342836	1.0
1.8534	333.149565876	2.0
1.8637	334.244633813	4.0
1.8739	335.323313858	1.0
1.8842	336.406787503	4.0
1.8944	337.474046766	2.0
1.9046	338.535668625	2.0
1.9149	339.602008279	2.0
1.9251	340.652389964	3.0
1.9354	341.707439493	2.0
1.9456	342.746700013	1.0
1.9558	343.780471021	4.0
1.9661	344.818836056	4.0
1.9763	345.841661768	4.0
1.9866	346.869032867	3.0
1.9968	347.881029168	1.0
2.007	348.887679972	3.0
2.0173	349.898804282	3.0
2.0275	350.894796931	6.0
2.0378	351.895215722	4.0
2.048	352.880663062	3.0
2.0582	353.860905139	6.0
2.0685	354.845503363	1.0
2.0787	355.815366895	3.0
2.089	356.789540451	7.0
2.0992	357.749135322	9.0
2.1094	358.703661486	5.0
2.1197	359.662429516	9.0
2.1299	360.606849408	6.0
2.1402	361.555466254	2.0
2.1504	362.489886875	5.0
2.1606	363.419371763	1.0
2.1709	364.352987236	7.0
2.1811	365.272630982	2.0
2.1914	366.196361579	9.0
2.2016	367.106268378	4.0
2.2118	368.01136893	4.0
2.2221	368.920491703	6.0
2.2323	369.816009287	4.0
2.2426	370.715506507	9.0
2.2528	371.601542586	8.0
2.263	372.482898506	6.0
2.2733	373.368171127	7.0
2.2835	374.240195481	11.0
2.2938	375.116095068	3.0
2.304	375.978886657	14.0
2.3142	376.837120868	9.0
2.3245	377.699169028	9.0
2.3347	378.548316479	13.0
2.345	379.401237499	12.0
2.3552	380.2413944	12.0
2.3654	381.077113482	11.0
2.3757	381.916546457	12.0
2.3859	382.743417164	9.0
2.3962	383.573962443	15.0
2.4064	384.39207846	9.0
2.4166	385.20587308	10.0
2.4269	386.023284163	11.0
2.4371	386.828462539	12.0
2.4474	387.637219087	10.0
2.4576	388.433872446	4.0
2.4678	389.226317777	15.0
2.4781	390.022284694	13.0
2.4883	390.806339822	18.0
2.4986	391.593879251	8.0
2.5088	392.369633008	20.0
2.519	393.141289131	11.0
2.5293	393.916374456	12.0
2.5395	394.679860487	15.0
2.5498	395.446739412	12.0
2.56	396.202141853	23.0
2.5702	396.953554159	14.0
2.5805	397.708305703	16.0
2.5907	398.451762252	19.0
2.601	399.198522685	10.0
2.6112	399.934107712	13.0
2.6214	400.665807281	15.0
2.6317	401.400758486	21.0
2.6419	402.124711013	16.0
2.6522	402.851880748	14.0
2.6624	403.568168254	20.0
2.6726	404.280672236	18.0
2.6829	404.996342549	12.0
2.6931	405.701302726	15.0
2.7034	406.40939571	10.0
2.7136	407.106891953	13.0
2.7238	407.800703928	14.0
2.7341	408.49759917	20.0
2.7443	409.184065246	12.0
2.7546	409.873581944	13.0
2.7648	410.552779898	17.0
2.775	411.228390238	16.0
2.7853	411.907002957	19.0
2.7955	412.575460113	11.0
2.8058	413.246887858	13.0
2.816	413.908267565	10.0
2.8262	414.566153776	22.0
2.8365	415.226963601	10.0
2.8467	415.877884286	11.0
2.857	416.53169763	8.0
2.8672	417.175726538	15.0
2.8774	417.816353599	7.0
2.8877	418.459827576	5.0
2.8979	419.093671846	11.0
2.9082	419.730332889	10.0
2.9184	420.357466183	13.0
2.9286	420.981286876	17.0
2.9389	421.607879796	5.0
2.9491	422.225095639	9.0
2.9594	422.845054359	9.0
2.9696	423.455735282	4.0
2.9798	424.063190509	13.0
2.9901	424.673345236	11.0
3.0003	425.274368885	13.0
3.0106	425.878063454	9.0
3.0208	426.472723623	12.0
3.031	427.064242719	12.0
3.0413	427.658390496	11.0
3.0515	428.243646742	9.0
3.0618	428.831503838	15.0
3.072	429.410563545	17.0
3.0822	429.986564582	15.0
3.0925	430.565125339	14.0
3.1027	431.135027828	13.0
3.113	431.707462936	13.0
3.1232	432.271331447	17.0
3.1334	432.83222153	9.0
3.1437	433.395604181	9.0
3.1539	433.950555707	10.0
3.1642	434.50797341	17.0
3.1744	435.057049255	17.0
3.1846	435.603224809	9.0
3.1949	436.15182754	8.0
3.2051	436.69222033	10.0
3.2154	437.235014599	12.0
3.2256	437.769685853	14.0
3.2358	438.301532902	7.0
3.2461	438.835743453	12.0
3.2563	439.361959445	12.0
3.2666	439.890513915	12.0
3.2768	440.41115847	13.0
3.287	440.929052912	13.0
3.2973	441.449248851	19.0
3.3075	441.961659963	16.0
3.3178	442.476348204	27.0
3.328	442.983334041	14.0
3.3382	443.487641912	16.0
3.3485	443.994190902	10.0
3.3587	444.493159294	12.0
3.369	444.994345076	17.0
3.3792	445.488030521	15.0
3.3894	445.979108254	27.0
3.3997	446.472368313	13.0
3.4099	446.958246644	22.0
3.4202	447.446284194	14.0
3.4304	447.927018173	15.0
3.4406	448.405212852	16.0
3.4509	448.885532604	21.0
3.4611	449.358664283	17.0
3.4714	449.833898535	30.0
3.4816	450.30202082	20.0
3.4918	450.767670421	17.0
3.5021	451.235389345	22.0
3.5123	451.69610877	17.0
3.5226	452.15887561	13.0
3.5328	452.614717058	20.0
3.543	453.068150693	17.0
3.5533	453.523599363	4.0
3.5635	453.972232161	25.0
3.5738	454.42285866	22.0
3.584	454.866741452	16.0
3.5942	455.308279595	17.0
3.6045	455.751779913	11.0
3.6147	456.188643167	16.0
3.625	456.627447819	20.0
3.6352	457.059685679	19.0
3.6454	457.489640402	20.0
3.6557	457.921505822	13.0
3.6659	458.346908297	16.0
3.6762	458.77420124	18.0
3.6864	459.195099665	9.0
3.6966	459.613774849	14.0
3.7069	460.034310605	6.0
3.7171	460.448552966	16.0
3.7274	460.8646362	18.0
3.7376	461.274492672	19.0
3.7478	461.682184227	9.0
3.7581	462.091687544	18.0
3.7683	462.495062568	15.0
3.7786	462.900230171	18.0
3.7888	463.299334367	12.0
3.799	463.696330442	10.0
3.8093	464.095090747	11.0
3.8195	464.487883531	19.0
3.8298	464.882421867	11.0
3.84	465.271055864	13.0
3.8502	465.657637045	12.0
3.8605	466.045936174	19.0
3.8707	466.428424335	19.0
3.881	466.812612255	17.0
3.8912	467.191050731	20.0
3.9014	467.567490246	19.0
3.9117	467.945602639	22.0
3.9219	468.318056511	13.0
3.9322	468.69216555	15.0
3.9424	469.060675978	23.0
3.9526	469.427239885	18.0
3.9629	469.795432784	17.0
3.9731	470.158115609	17.0
3.9834	470.522410178	14.0
3.9936	470.881253013	13.0
4.0038	471.238200392	17.0
4.0141	471.596734027	11.0
4.0243	471.949902141	22.0
4.0346	472.304639716	9.0
4.0448	472.654068579	26.0
4.055	473.001651712	16.0
4.0653	473.350779487	13.0
4.0755	473.694682501	8.0
4.0858	474.040113803	18.0
4.096	474.380375662	11.0
4.1062	474.718840213	15.0
4.1165	475.058808884	21.0
4.1267	475.393689861	18.0
4.137	475.730059033	14.0
4.1472	476.061394378	10.0
4.1574	476.390979567	14.0
4.1677	476.722029415	8.0
4.1779	477.048125042	18.0
4.1882	477.375669821	8.0
4.1984	477.698312833	18.0
4.2086	478.019251602	15.0
4.2189	478.341616607	10.0
4.2291	478.65915736	12.0
4.2394	478.978109249	21.0
4.2496	479.292287964	8.0
4.2598	479.604807146	10.0
4.2701	479.918715147	14.0
4.2803	480.227925458	17.0
4.2906	480.538509884	12.0
4.3008	480.844446357	11.0
4.311	481.148766833	10.0
4.3213	481.454439694	13.0
4.3315	481.755538105	13.0
4.3418	482.057974582	13.0
4.352	482.355885042	8.0
4.3622	482.652221899	20.0
4.3725	482.949875663	19.0
4.3827	483.243074983	15.0
4.393	483.537577267	16.0
4.4032	483.82767227	15.0
4.4134	484.116234953	9.0
4.4237	484.406079994	8.0
4.4339	484.691587451	15.0
4.4442	484.978363689	13.0
4.4544	485.260848268	9.0
4.4646	485.541840726	7.0
4.4749	485.8240819	18.0
4.4851	486.102099284	11.0
4.4954	486.381352163	16.0
4.5056	486.656425972	10.0
4.5158	486.930046804	20.0
4.5261	487.204883594	15.0
4.5363	487.4756074	11.0
4.5466	487.74753429	8.0
4.5568	488.015391744	10.0
4.567	488.28183434	10.0
4.5773	488.549460993	12.0
4.5875	488.813082565	11.0
4.5978	489.077875657	8.0
4.608	489.338706073	17.0
4.6182	489.598158747	11.0
4.6285	489.858764417	15.0
4.6387	490.115470074	12.0
4.649	490.373316519	10.0
4.6592	490.627304245	18.0
4.6694	490.879950374	7.0
4.6797	491.13371925	14.0
4.6899	491.383690428	16.0
4.7002	491.634772465	10.0
4.7104	491.882097014	16.0
4.7206	492.128115162	13.0
4.7309	492.375226602	10.0
4.7411	492.618639974	9.0
4.7514	492.863135063	13.0
4.7616	493.103971239	13.0
4.7718	493.343535285	8.0
4.7821	493.584163943	18.0
4.7923	493.821191549	18.0
4.8026	494.059272493	17.0
4.8128	494.293790512	11.0
4.823	494.527069777	8.0
4.8333	494.761385722	9.0
4.8435	494.992195087	11.0
4.8538	495.224030157	12.0
4.864	495.452395773	12.0
4.8742	495.679555131	6.0
4.8845	495.907723974	20.0
4.8947	496.132478229	11.0
4.905	496.35823128	11.0
4.9152	496.580605896	13.0
4.9254	496.801805899	8.0
4.9357	497.023988905	16.0
4.9459	497.2428469	17.0
4.9562	497.46267749	12.0
4.9664	497.679218275	11.0
4.9766	497.894615263	8.0
4.9869	498.110969464	7.0
4.9971	498.324085885	5.0
5.0074	498.538149385	17.0
5.0176	498.749009385	14.0
5.0278	498.958755595	12.0
5.0381	499.169433907	9.0
5.0483	499.376959379	12.0
5.0586	499.585407084	13.0
5.0688	499.790735331	13.0
5.079	499.994979007	8.0
5.0893	500.200130331	5.0
5.0995	500.402211529	18.0
5.1098	500.605190765	10.0
5.12	500.80513238	14.0
5.1302	501.004017876	19.0
5.1405	501.20378721	13.0
5.1507	501.40056696	8.0
5.161	501.598221188	7.0
5.1712	501.792917485	15.0
5.1814	501.986585371	14.0
5.1917	502.181113906	9.0
5.2019	502.372731287	8.0
5.2122	502.565200206	12.0
5.2224	502.754788792	13.0
5.2326	502.943375946	14.0
5.2429	503.132801172	12.0
5.2531	503.319391615	16.0
5.2634	503.506811256	12.0
5.2736	503.691426128	11.0
5.2838	503.87506584	6.0
5.2941	504.059521638	6.0
5.3043	504.241217021	7.0
5.3146	504.423719849	14.0
5.3248	504.603491489	10.0
5.335	504.782313551	12.0
5.3453	504.96193029	13.0
5.3555	505.138859031	16.0
5.3658	505.316574035	12.0
5.376	505.491629501	8.0
5.3862	505.665760301	9.0
5.3965	505.84066493	7.0
5.4067	506.012952079	10.0
5.417	506.186004863	8.0
5.4272	506.356467881	10.0
5.4374	506.526030491	5.0
5.4477	506.696346628	3.0
5.4579	506.864113953	11.0
5.4682	507.032626828	9.0
5.4784	507.198617877	7.0
5.4886	507.363732139	7.0
5.4989	507.52958016	11.0
5.5091	507.692946236	6.0
5.5194	507.857038302	12.0
5.5296	508.018674701	10.0
5.5398	508.179457314	6.0
5.5501	508.340954438	11.0
5.5603	508.500034727	5.0
5.5706	508.659821962	10.0
5.5808	508.817217951	4.0
5.591	508.973782554	5.0
5.6013	509.131042922	11.0
5.6115	509.285949859	12.0
5.6218	509.441545196	8.0
5.632	509.59481202	12.0
5.6422	509.747269268	7.0
5.6525	509.900404029	7.0
5.6627	510.051247099	8.0
5.673	510.202760509	7.0
5.6832	510.352006493	7.0
5.6934	510.50046414	7.0
5.7037	510.649581526	2.0
5.7139	510.796467342	6.0
5.7242	510.944005912	4.0
5.7344	511.08933654	4.0
5.7446	511.233899512	3.0
5.7549	511.379104915	0.0
5.7651	511.522137292	4.0
5.7754	511.665805299	4.0
5.7856	511.807323287	3.0
5.7958	511.948093758	6.0
5.8061	512.089489807	6.0
5.8163	512.228769838	2.0
5.8266	512.368668822	2.0
5.8368	512.506474192	4.0
5.847	512.643551656	4.0
5.8573	512.781238286	5.0
5.8675	512.91686441	3.0
5.8778	513.053093249	3.0
5.888	513.187283399	4.0
5.8982	513.320764739	2.0
5.9085	513.454839264	4.0
5.9187	513.586907338	6.0
5.929	513.719562317	1.0
5.9392	513.850232089	1.0
5.9494	513.980211647	5.0
5.9597	514.110768827	2.0
5.9699	514.239372195	2.0
5.9802	514.36854707	3.0
5.9904	514.495788819	2.0
6.0006	514.622358461	3.0
6.0109	514.749490571	1.0
6.0211	514.874720127	2.0
6.0314	515.000506196	2.0
6.0416	515.124409854	6.0
6.0518	515.247659036	5.0
6.0621	515.371455931	1.0
6.0723	515.493400184	3.0
6.0826	515.61588635	3.0
6.0928	515.736539489	3.0
6.103	515.856555321	2.0
6.1133	515.977104498	2.0
6.1235	516.095849635	2.0
6.1338	516.215122469	1.0
6.144	516.332610363	3.0
6.1542	516.449477671	1.0
6.1645	516.566864331	2.0
6.1747	516.682494278	2.0
6.185	516.798638079	1.0
6.1952	516.913043767	0.0
6.2054	517.026845148	1.0
6.2157	517.141152258	2.0
6.2259	517.25374874	0.0
6.2362	517.366845596	0.0
6.2464	517.478249937	1.0
6.2566	517.589065825	4.0
6.2669	517.700374173	1.0
6.2771	517.810016772	1.0
6.2874	517.920146616	1.0
6.2976	518.028628348	1.0
6.3078	518.136537065	0.0
6.3181	518.244925322	3.0
6.3283	518.35169153	3.0
6.3386	518.458932201	1.0
6.3488	518.564567996	2.0
6.359	518.669645808	1.0
6.3693	518.775190582	0.0
6.3795	518.879155858	1.0
6.3898	518.983583151	0.0
6.4	519.08644767	0.0
6.4102	519.188768845	3.0
6.4205	519.291544731	0.0
6.4307	519.392782556	1.0
6.441	519.494470278	2.0
6.4512	519.594636224	1.0
6.4614	519.69427308	1.0
6.4717	519.794352718	1.0
6.4819	519.892934645	1.0
6.4922	519.991954665	0.0
6.5024	520.089492833	1.0
6.5126	520.186515792	2.0
6.5229	520.283969915	2.0
6.5331	520.37996562	4.0
6.5434	520.476387925	0.0
6.5536	520.571367252	1.0
6.5638	520.665844886	2.0
6.5741	520.760742374	1.0
6.5843	520.854219703	1.0
6.5946	520.948112442	1.0
6.6048	521.040600058	0.0
6.615	521.132599142	0.0
6.6253	521.225007066	2.0
6.6355	521.316032088	3.0
6.6458	521.407461621	0.0
6.656	521.497522894	1.0
6.6662	521.587108451	1.0
6.6765	521.677092123	1.0
6.6867	521.765729172	0.0
6.697	521.85476012	1.0
6.7072	521.942458703	0.0
6.7174	522.029694051	0.0
6.7277	522.117317069	2.0
6.7379	522.203628791	1.0
6.7482	522.290324079	1.0
6.7584	522.375721956	0.0
6.7686	522.460668751	3.0
6.7789	522.545993044	2.0
6.7891	522.630040444	1.0
6.7994	522.714461346	1.0
6.8096	522.797618874	2.0
6.8198	522.880337153	1.0
6.8301	522.963423028	0.0
6.8403	523.045265507	0.0
6.8506	523.127471691	0.0
6.8608	523.208447644	2.0
6.871	523.288995871	2.0
6.8813	523.36990205	0.0
6.8915	523.449597454	2.0
6.9018	523.52964702	0.0
6.912	523.60849863	0.0
6.9222	523.686933735	2.0
6.9325	523.765717401	1.0
6.9427	523.843322056	2.0
6.953	523.921271582	0.0
6.9632	523.998054579	1.0
6.9734	524.074431998	4.0
6.9837	524.151148834	2.0
6.9939	524.226717589	2.0
7.0042	524.302622168	1.0
7.0144	524.377390821	1.0
7.0246	524.451764536	3.0
7.0349	524.526468764	2.0
7.0451	524.600055029	2.0
7.0554	524.673968308	3.0
7.0656	524.746775462	1.0
7.0758	524.819198038	2.0
7.0861	524.891942457	2.0
7.0963	524.963598242	1.0
7.1066	525.035572462	1.0
7.1168	525.106469575	1.0
7.127	525.1769922	1.0
7.1373	525.247828223	0.0
7.1475	525.317604173	0.0
7.1578	525.387690203	1.0
7.168	525.456727383	0.0
7.1782	525.5253999	1.0
7.1885	525.594377594	0.0
7.1987	525.662323024	1.0
7.209	525.7305704	0.0
7.2192	525.797796442	0.0
7.2294	525.864667387	1.0
7.2397	525.931835503	2.0
7.2499	525.997998436	0.0
7.2602	526.064455393	2.0
7.2704	526.12991781	0.0
7.2806	526.195034446	1.0
7.2909	526.260440457	0.0
7.3011	526.324867655	2.0
7.3114	526.389581165	2.0
7.3216	526.453326224	3.0
7.3318	526.516734574	0.0
7.3421	526.580424708	1.0
7.3523	526.643161707	1.0
7.3626	526.706177506	0.0
7.3728	526.768250262	0.0
7.383	526.829995142	1.0
7.3933	526.892014413	2.0
7.4035	526.953105554	0.0
7.4138	527.014468181	0.0
7.424	527.074912505	0.0
7.4342	527.135037554	2.0
7.4445	527.195429796	1.0
7.4547	527.254918257	0.0
7.465	527.314671081	1.0
7.4752	527.373529694	2.0
7.4854	527.432077408	1.0
7.4957	527.490885305	1.0
7.5059	527.548813131	2.0
7.5162	527.606998385	1.0
7.5264	527.664312886	1.0
7.5366	527.721324645	0.0
7.5469	527.778589761	1.0
7.5571	527.834997894	1.0
7.5674	527.891656702	2.0
7.5776	527.9474676	0.0
7.5878	528.002983698	0.0
7.5981	528.058746507	1.0
7.6083	528.113674815	1.0
7.6186	528.168847221	0.0
7.6288	528.223193963	1.0
7.639	528.277253638	0.0
7.6493	528.331553551	2.0
7.6595	528.385040856	1.0
7.6698	528.438765857	0.0
7.68	528.491686852	0.0
7.6902	528.544328312	2.0
7.7005	528.597203708	1.0
7.7107	528.649287814	0.0
7.721	528.701603379	0.0
7.7312	528.753136033	1.0
7.7414	528.804396483	2.0
7.7517	528.855884733	1.0
7.7619	528.906602452	0.0
7.7722	528.957545558	0.0
7.7824	529.00772629	0.0
7.7926	529.057641962	0.0
7.8029	529.107779456	1.0
7.8131	529.157166634	4.0
7.8234	529.206773285	2.0
7.8336	529.255637564	0.0
7.8438	529.304243736	0.0
7.8541	529.353065911	3.0
7.8643	529.401157453	0.0
7.8746	529.449462711	0.0
7.8848	529.497045072	1.0
7.895	529.544376098	2.0
7.9053	529.591917459	2.0
7.9155	529.638747356	1.0
7.9258	529.685785362	1.0
7.936	529.732119436	1.0
7.9462	529.778208768	2.0
7.9565	529.824502918	0.0
7.9667	529.870104267	0.0
7.977	529.915908267	1.0
7.9872	529.961026801	2.0
7.9974	530.005907013	0.0
8.0077	530.050986671	1.0
8.0179	530.095391704	0.0
8.0282	530.13999407	0.0
8.0384	530.183928953	1.0
8.0486	530.227631767	2.0
8.0589	530.271528794	2.0
8.0691	530.314768894	1.0
8.0794	530.35820115	1.0
8.0896	530.400983435	2.0
