TL-DOS Lehrstuhlversuch
detector=R1407505
job_number=2015-10-27-005
irradiation_dose [mSv]=0.3

[BEGIN DATA]
time [sec] 	 temperature [K] 	 photoncount 
0.0	259.518640275	0.0
0.0102	260.220719415	0.0
0.0205	260.928455538	0.0
0.0307	261.628108291	0.0
0.041	262.333398476	2.0
0.0512	263.030633226	1.0
0.0614	263.726667988	3.0
0.0717	264.42831103	0.0
0.0819	265.121940293	0.0
0.0922	265.821158454	0.0
0.1024	266.512390533	0.0
0.1126	267.202432953	1.0
0.1229	267.898035371	1.0
0.1331	268.585693002	1.0
0.1434	269.278891415	2.0
0.1536	269.9641725	1.0
0.1638	270.648274169	0.0
0.1741	271.337887967	0.0
0.1843	272.019625379	0.0
0.1946	272.706855869	0.0
0.2048	273.386237193	2.0
0.215	274.064449256	3.0
0.2253	274.748125993	0.0
0.2355	275.423994153	0.0
0.2458	276.1053081	0.0
0.256	276.778840457	1.0
0.2662	277.451213619	0.0
0.2765	278.129004408	0.0
0.2867	278.799053845	0.0
0.297	279.474502187	0.0
0.3072	280.142235931	0.0
0.3174	280.808820461	0.0
0.3277	281.480775975	0.0
0.3379	282.145056786	0.0
0.3482	282.81469002	0.0
0.3584	283.476675074	0.0
0.3686	284.137520807	0.0
0.3789	284.803691284	0.0
0.3891	285.462253132	0.0
0.3994	286.126121322	0.0
0.4096	286.782407177	0.0
0.4198	287.43756352	0.0
0.4301	288.097998766	0.0
0.4403	288.750890886	0.0
0.4506	289.409043665	0.0
0.4608	290.059679388	0.0
0.471	290.709195322	0.0
0.4813	291.363944712	0.0
0.4915	292.011215917	0.0
0.5018	292.66370249	0.0
0.512	293.308736724	0.0
0.5222	293.952660809	0.0
0.5325	294.601773294	0.0
0.5427	295.243471975	0.0
0.553	295.890341125	0.0
0.5632	296.529822094	0.0
0.5734	297.168202472	0.0
0.5837	297.811726582	0.0
0.5939	298.447900715	0.0
0.6042	299.089200803	0.0
0.6144	299.723176316	0.0
0.6246	300.356060715	0.0
0.6349	300.994044561	0.0
0.6451	301.624741708	0.0
0.6554	302.26052068	0.0
0.6656	302.889038136	0.0
0.6758	303.516473871	0.0
0.6861	304.14896515	0.0
0.6963	304.774232465	0.0
0.7066	305.404537853	0.0
0.7168	306.027644241	0.0
0.727	306.649678221	0.0
0.7373	307.276724222	0.0
0.7475	307.89660845	0.0
0.7578	308.521487378	0.0
0.768	309.139229284	0.0
0.7782	309.755908015	0.0
0.7885	310.377555616	0.0
0.7987	310.992103102	0.0
0.809	311.611602287	0.0
0.8192	312.224025896	1.0
0.8294	312.835395481	1.0
0.8397	313.451691159	0.0
0.8499	314.060947849	0.0
0.8602	314.675113607	0.0
0.8704	315.282264704	0.0
0.8806	315.888370853	0.0
0.8909	316.499360684	0.0
0.9011	317.103372127	1.0
0.9114	317.712250375	1.0
0.9216	318.314174353	0.0
0.9318	318.915062378	0.0
0.9421	319.520792042	0.0
0.9523	320.119603396	0.0
0.9626	320.723239656	0.0
0.9728	321.319981516	0.0
0.983	321.915696343	0.0
0.9933	322.516211125	0.0
1.0035	323.109867159	0.0
1.0138	323.708306559	0.0
1.024	324.299910916	0.0
1.0342	324.890497082	0.0
1.0445	325.485841878	1.0
1.0547	326.074386976	0.0
1.065	326.667674259	0.0
1.0752	327.254185343	0.0
1.0854	327.839687001	0.0
1.0957	328.429906322	1.0
1.1059	329.013384484	0.0
1.1162	329.601564005	0.0
1.1264	330.183025665	0.0
1.1366	330.76348659	0.0
1.1469	331.348624561	0.0
1.1571	331.927079411	1.0
1.1674	332.510195144	0.0
1.1776	333.086650852	0.0
1.1878	333.66211444	0.0
1.1981	334.242214809	0.0
1.2083	334.815689593	0.0
1.2186	335.393785134	2.0
1.2288	335.965277987	0.0
1.239	336.535787262	2.0
1.2493	337.110893399	0.0
1.2595	337.679430992	0.0
1.2698	338.25254956	0.0
1.28	338.819122285	0.0
1.2902	339.3847199	0.0
1.3005	339.954874801	0.0
1.3107	340.518517708	3.0
1.321	341.086702152	2.0
1.3312	341.648397108	0.0
1.3414	342.209125348	1.0
1.3517	342.77437164	0.0
1.3619	343.333162001	2.0
1.3722	343.8964548	0.0
1.3824	344.45331398	0.0
1.3926	345.009214767	0.0
1.4029	345.569594709	2.0
1.4131	346.123574301	0.0
1.4234	346.682017568	0.0
1.4336	347.234082605	0.0
1.4438	347.785197501	0.0
1.4541	348.340752988	0.0
1.4643	348.889963229	0.0
1.4746	349.443598715	0.0
1.4848	349.990910882	1.0
1.495	350.537281089	1.0
1.5053	351.088053657	2.0
1.5155	351.632535606	0.0
1.5258	352.181404703	0.0
1.536	352.72400492	2.0
1.5462	353.265671286	1.0
1.5565	353.811702112	3.0
1.5667	354.351496477	0.0
1.577	354.895640219	0.0
1.5872	355.433569052	0.0
1.5974	355.970572073	0.0
1.6077	356.511901981	2.0
1.6179	357.047049118	4.0
1.6282	357.586508187	0.0
1.6384	358.119805854	0.0
1.6486	358.652185679	1.0
1.6589	359.188855138	1.0
1.6691	359.719395057	1.0
1.6794	360.254209785	4.0
1.6896	360.782916156	2.0
1.6998	361.310712587	3.0
1.7101	361.842761722	0.0
1.7203	362.368734086	0.0
1.7306	362.898944458	0.0
1.7408	363.42309906	1.0
1.751	363.946351556	1.0
1.7613	364.473820145	0.0
1.7715	364.995264279	3.0
1.7818	365.520909933	7.0
1.792	366.040551955	0.0
1.8022	366.559299636	1.0
1.8125	367.082227113	1.0
1.8227	367.599182001	3.0
1.833	368.120302238	1.0
1.8432	368.635470528	4.0
1.8534	369.149752178	4.0
1.8637	369.668177638	2.0
1.8739	370.180681929	5.0
1.8842	370.697315709	3.0
1.8944	371.208048783	2.0
1.9046	371.717902852	1.0
1.9149	372.231865054	5.0
1.9251	372.739957065	5.0
1.9354	373.252143012	0.0
1.9456	373.758479055	8.0
1.9558	374.263943659	3.0
1.9661	374.77348103	7.0
1.9763	375.277198746	2.0
1.9866	375.784975154	9.0
1.9968	376.28695202	3.0
2.007	376.78806495	8.0
2.0173	377.293215583	5.0
2.0275	377.792596665	9.0
2.0378	378.296001496	7.0
2.048	378.793656715	9.0
2.0582	379.290455436	8.0
2.0685	379.791257097	7.0
2.0787	380.28633888	10.0
2.089	380.78540977	4.0
2.0992	381.278780548	5.0
2.1094	381.771302201	11.0
2.1197	382.267792334	6.0
2.1299	382.758611831	3.0
2.1402	383.253386091	10.0
2.1504	383.742509314	7.0
2.1606	384.230790723	14.0
2.1709	384.723006445	9.0
2.1811	385.209600351	22.0
2.1914	385.700114974	15.0
2.2016	386.18502721	13.0
2.2118	386.669104879	8.0
2.2221	387.15708299	20.0
2.2323	387.639487684	16.0
2.2426	388.125779341	24.0
2.2528	388.606516844	20.0
2.263	389.086426964	16.0
2.2733	389.570203947	22.0
2.2835	390.048455497	23.0
2.2938	390.530560544	23.0
2.304	391.007159255	24.0
2.3142	391.482937706	27.0
2.3245	391.962549729	26.0
2.3347	392.436683889	34.0
2.345	392.91463837	27.0
2.3552	393.387133921	23.0
2.3654	393.858816274	31.0
2.3757	394.334299194	36.0
2.3859	394.804351412	29.0
2.3962	395.278191061	29.0
2.4064	395.746618777	29.0
2.4166	396.214240296	31.0
2.4269	396.685629662	33.0
2.4371	397.15163508	38.0
2.4474	397.621395322	33.0
2.4576	398.085790224	36.0
2.4678	398.54938587	39.0
2.4781	399.016716924	35.0
2.4883	399.478710382	40.0
2.4986	399.944426339	41.0
2.5088	400.404823146	40.0
2.519	400.864427578	34.0
2.5293	401.32773526	42.0
2.5395	401.785751298	36.0
2.5498	402.247457787	44.0
2.56	402.70389092	46.0
2.5702	403.159538501	36.0
2.5805	403.618857448	42.0
2.5907	404.072930309	40.0
2.601	404.530661849	31.0
2.6112	404.983165433	45.0
2.6214	405.434890226	57.0
2.6317	405.89025478	48.0
2.6419	406.340418411	43.0
2.6522	406.794209223	37.0
2.6624	407.242817088	44.0
2.6726	407.690652867	38.0
2.6829	408.142097071	50.0
2.6931	408.588385128	48.0
2.7034	409.038269139	39.0
2.7136	409.483014824	50.0
2.7238	409.926995071	42.0
2.7341	410.374552675	49.0
2.7443	410.816998525	37.0
2.7546	411.263009369	38.0
2.7648	411.703926124	49.0
2.775	412.144084032	43.0
2.7853	412.587788499	36.0
2.7955	413.026425219	37.0
2.8058	413.468596242	41.0
2.816	413.905717032	44.0
2.8262	414.342085507	27.0
2.8365	414.781970009	40.0
2.8467	415.216830394	43.0
2.857	415.655194653	26.0
2.8672	416.088552158	33.0
2.8774	416.521163826	35.0
2.8877	416.95726125	34.0
2.8979	417.38837781	38.0
2.9082	417.822968079	27.0
2.9184	418.252594699	21.0
2.9286	418.681481902	29.0
2.9389	419.113824852	24.0
2.9491	419.541229819	21.0
2.9594	419.97207859	22.0
2.9696	420.398006444	31.0
2.9798	420.823201248	28.0
2.9901	421.251822046	34.0
3.0003	421.675547375	27.0
3.0106	422.102686858	23.0
3.0208	422.524947791	20.0
3.031	422.946481984	33.0
3.0413	423.371412676	32.0
3.0515	423.791490045	20.0
3.0618	424.214952175	23.0
3.072	424.633577756	23.0
3.0822	425.051482853	31.0
3.0925	425.472755208	33.0
3.1027	425.889216024	26.0
3.113	426.30903246	28.0
3.1232	426.724053986	30.0
3.1334	427.138361231	40.0
3.1437	427.556006745	16.0
3.1539	427.968882143	43.0
3.1642	428.385084272	26.0
3.1744	428.796532771	19.0
3.1846	429.20727314	35.0
3.1949	429.621323036	38.0
3.2051	430.030643884	29.0
3.2154	430.443262823	46.0
3.2256	430.851169057	35.0
3.2358	431.258373256	37.0
3.2461	431.668858492	41.0
3.2563	432.074655392	50.0
3.2666	432.483721989	32.0
3.2768	432.888116454	46.0
3.287	433.291814928	34.0
3.2973	433.698766191	38.0
3.3075	434.101069482	50.0
3.3178	434.50661432	60.0
3.328	434.907527249	47.0
3.3382	435.30775018	42.0
3.3485	435.711197896	45.0
3.3587	436.110037655	55.0
3.369	436.512091053	65.0
3.3792	436.909552421	33.0
3.3894	437.30632973	51.0
3.3997	437.706304061	46.0
3.4099	438.101710106	54.0
3.4202	438.500302125	53.0
3.4304	438.894341646	63.0
3.4406	439.287702998	37.0
3.4509	439.684233847	44.0
3.4611	440.076235741	46.0
3.4714	440.471396179	53.0
3.4816	440.862043312	50.0
3.4918	441.252018116	52.0
3.5021	441.64513513	47.0
3.5123	442.033762179	58.0
3.5226	442.42552058	53.0
3.5328	442.812804532	57.0
3.543	443.199421943	53.0
3.5533	443.589154512	50.0
3.5635	443.974435772	60.0
3.5738	444.362821424	69.0
3.584	444.74677115	51.0
3.5942	445.130060073	49.0
3.6045	445.516437335	47.0
3.6147	445.898401609	41.0
3.625	446.28344355	41.0
3.6352	446.664087755	55.0
3.6454	447.044076845	57.0
3.6557	447.427127686	52.0
3.6659	447.805803533	54.0
3.6762	448.187530549	48.0
3.6864	448.564897691	57.0
3.6966	448.941615357	47.0
3.7069	449.321368416	45.0
3.7171	449.696784145	34.0
3.7274	450.075224776	34.0
3.7376	450.449343067	61.0
3.7478	450.822817476	52.0
3.7581	451.199301143	55.0
3.7683	451.571484822	34.0
3.7786	451.946667361	50.0
3.7888	452.317564772	38.0
3.799	452.687823844	35.0
3.8093	453.061066267	45.0
3.8195	453.430045722	46.0
3.8298	453.801998218	35.0
3.84	454.169702478	39.0
3.8502	454.536773895	51.0
3.8605	454.906802978	49.0
3.8707	455.272605795	50.0
3.881	455.641356057	39.0
3.8912	456.005894657	30.0
3.9014	456.369805862	36.0
3.9117	456.736649271	35.0
3.9219	457.099302797	53.0
3.9322	457.464878394	25.0
3.9424	457.826278588	44.0
3.9526	458.187056789	46.0
3.9629	458.550741949	49.0
3.9731	458.910273298	31.0
3.9834	459.272701561	34.0
3.9936	459.630990369	36.0
4.0038	459.988662537	26.0
4.0141	460.349216638	59.0
4.0243	460.705652691	39.0
4.0346	461.064960716	38.0
4.0448	461.420164924	35.0
4.055	461.774757801	36.0
4.0653	462.1322078	35.0
4.0755	462.485575203	44.0
4.0858	462.841789853	42.0
4.096	463.193936017	45.0
4.1062	463.545476114	35.0
4.1165	463.899848734	48.0
4.1267	464.250173907	53.0
4.137	464.603321815	46.0
4.1472	464.952436262	53.0
4.1574	465.30094986	45.0
4.1677	465.652271596	47.0
4.1779	465.99958073	53.0
4.1882	466.349688297	43.0
4.1984	466.695797129	46.0
4.2086	467.041310284	38.0
4.2189	467.389607401	43.0
4.2291	467.733926462	49.0
4.2394	468.081019863	44.0
4.2496	468.424148956	51.0
4.2598	468.7666875	47.0
4.2701	469.111986038	34.0
4.2803	469.453340768	33.0
4.2906	469.797445953	48.0
4.3008	470.13762096	42.0
4.311	470.477210502	48.0
4.3213	470.819536277	53.0
4.3315	471.157952196	46.0
4.3418	471.499094892	37.0
4.352	471.836341245	38.0
4.3622	472.173007174	44.0
4.3725	472.512385779	44.0
4.3827	472.847888189	40.0
4.393	473.1860939	41.0
4.4032	473.520436813	39.0
4.4134	473.854204299	54.0
4.4237	474.190661107	39.0
4.4339	474.523275091	47.0
4.4442	474.858569103	48.0
4.4544	475.190033572	45.0
4.4646	475.520927568	42.0
4.4749	475.854487733	35.0
4.4851	476.184238158	47.0
4.4954	476.516645538	37.0
4.5056	476.845256345	35.0
4.5158	477.17330159	37.0
4.5261	477.50399005	34.0
4.5363	477.83090157	40.0
4.5466	478.16044717	41.0
4.5568	478.486228882	46.0
4.567	478.811449902	31.0
4.5773	479.13929138	51.0
4.5875	479.463388435	35.0
4.5978	479.790096893	39.0
4.608	480.113073867	35.0
4.6182	480.435494976	33.0
4.6285	480.760513983	26.0
4.6387	481.081820803	37.0
4.649	481.405716544	37.0
4.6592	481.725912927	31.0
4.6694	482.04555823	48.0
4.6797	482.367779066	32.0
4.6899	482.686319674	35.0
4.7002	483.007426913	39.0
4.7104	483.324866643	39.0
4.7206	483.641760038	36.0
4.7309	483.961206793	30.0
4.7411	484.277005003	41.0
4.7514	484.595347748	34.0
4.7616	484.910054558	33.0
4.7718	485.224219737	44.0
4.7821	485.540916292	41.0
4.7923	485.853995715	42.0
4.8026	486.169597766	37.0
4.8128	486.481595185	36.0
4.823	486.793055635	39.0
4.8333	487.107025669	29.0
4.8435	487.417409711	43.0
4.8538	487.730294663	24.0
4.864	488.039606017	39.0
4.8742	488.348385024	26.0
4.8845	488.65965201	26.0
4.8947	488.967363876	32.0
4.905	489.277555122	43.0
4.9152	489.584203535	35.0
4.9254	489.890324185	34.0
4.9357	490.198911393	31.0
4.9459	490.503974089	36.0
4.9562	490.811494819	28.0
4.9664	491.115503218	30.0
4.9766	491.418988397	24.0
4.9869	491.724918899	29.0
4.9971	492.027355232	43.0
5.0074	492.332228438	30.0
5.0176	492.63361955	30.0
5.0278	492.934491948	27.0
5.0381	493.237788616	34.0
5.0483	493.537621198	35.0
5.0586	493.839869672	36.0
5.0688	494.138666031	23.0
5.079	494.436948141	33.0
5.0893	494.737633651	30.0
5.0995	495.034884897	38.0
5.1098	495.334531236	27.0
5.12	495.630755181	26.0
5.1302	495.926469305	40.0
5.1405	496.224566136	37.0
5.1507	496.51925827	36.0
5.161	496.816324878	36.0
5.1712	497.109998555	26.0
5.1814	497.4031668	36.0
5.1917	497.698697239	50.0
5.2019	497.990852293	35.0
5.2122	498.285361378	29.0
5.2224	498.576506744	39.0
5.2326	498.867151028	33.0
5.2429	499.16013717	39.0
5.2531	499.449776987	38.0
5.2634	499.741750568	34.0
5.2736	500.030389389	42.0
5.2838	500.318531442	37.0
5.2941	500.608995192	31.0
5.3043	500.896141425	41.0
5.3146	501.185601331	28.0
5.3248	501.471755186	27.0
5.335	501.757416551	33.0
5.3453	502.045379624	31.0
5.3555	502.330053742	39.0
5.3658	502.617021614	33.0
5.376	502.900711897	24.0
5.3862	503.18391393	30.0
5.3965	503.469397855	39.0
5.4067	503.751621141	36.0
5.417	504.036118433	21.0
5.4272	504.317366354	34.0
5.4374	504.598130228	34.0
5.4477	504.88115635	33.0
5.4579	505.160949903	28.0
5.4682	505.442997885	24.0
5.4784	505.721824471	36.0
5.4886	506.000171177	28.0
5.4989	506.280760654	36.0
5.5091	506.558145393	29.0
5.5194	506.837765152	38.0
5.5296	507.114191248	29.0
5.5398	507.390141596	31.0
5.5501	507.668315407	28.0
5.5603	507.94331207	21.0
5.5706	508.22052451	30.0
5.5808	508.494570784	29.0
5.591	508.768145405	27.0
5.6013	509.043924346	24.0
5.6115	509.316553492	25.0
5.6218	509.59137934	25.0
5.632	509.863066279	24.0
5.6422	510.134285626	29.0
5.6525	510.407690316	26.0
5.6627	510.677972328	31.0
5.673	510.95043213	20.0
5.6832	511.219780047	23.0
5.6934	511.488664397	25.0
5.7037	511.759715276	30.0
5.7139	512.027670361	20.0
5.7242	512.297784487	36.0
5.7344	512.564813519	28.0
5.7446	512.831382975	20.0
5.7549	513.100100307	33.0
5.7651	513.365748499	28.0
5.7754	513.633537143	25.0
5.7856	513.898267253	25.0
5.7958	514.162541745	23.0
5.8061	514.428945621	19.0
5.8163	514.69230678	25.0
5.8266	514.957789963	20.0
5.8368	515.220240944	20.0
5.847	515.482240229	21.0
5.8573	515.746350566	24.0
5.8675	516.007444381	26.0
5.8778	516.270641951	18.0
5.888	516.530833425	20.0
5.8982	516.790577091	22.0
5.9085	517.052413635	20.0
5.9187	517.311259626	19.0
5.929	517.572191261	10.0
5.9392	517.83014268	16.0
5.9494	518.087650147	14.0
5.9597	518.347232472	16.0
5.9699	518.603849992	16.0
5.9802	518.862535201	11.0
5.9904	519.11826585	20.0
6.0006	519.373556369	20.0
6.0109	519.630903884	11.0
6.0211	519.885312118	11.0
6.0314	520.141770239	8.0
6.0416	520.395299237	16.0
6.0518	520.648391895	10.0
6.0621	520.903523839	22.0
6.0723	521.155741808	14.0
6.0826	521.409992016	7.0
6.0928	521.661338318	15.0
6.103	521.912252036	18.0
6.1133	522.165187485	10.0
6.1235	522.415234044	12.0
6.1338	522.667295347	12.0
6.144	522.916477744	13.0
6.1542	523.165231282	15.0
6.1645	523.415989145	19.0
6.1747	523.66388299	9.0
6.185	523.913774232	6.0
6.1952	524.160811355	12.0
6.2054	524.40742331	11.0
6.2157	524.656022334	16.0
6.2259	524.901781997	13.0
6.2362	525.149521861	5.0
6.2464	525.394432179	10.0
6.2566	525.638920988	11.0
6.2669	525.885379759	11.0
6.2771	526.129023615	8.0
6.2874	526.374630624	8.0
6.2976	526.617432445	6.0
6.3078	526.859816388	6.0
6.3181	527.104153333	5.0
6.3283	527.345699596	7.0
6.3386	527.589192112	7.0
6.3488	527.82990359	8.0
6.359	528.070200788	6.0
6.3693	528.312434173	8.0
6.3795	528.551900903	8.0
6.3898	528.793297129	6.0
6.4	529.031936261	2.0
6.4102	529.270164678	8.0
6.4205	529.510312615	6.0
6.4307	529.747717714	4.0
6.441	529.987035698	2.0
6.4512	530.223620325	5.0
6.4614	530.459797773	5.0
6.4717	530.697878214	5.0
6.4819	530.933239432	3.0
6.4922	531.170497067	3.0
6.5024	531.405044876	7.0
6.5126	531.639189012	6.0
6.5229	531.875219758	2.0
6.5331	532.108554691	2.0
6.5434	532.343769714	5.0
6.5536	532.576298241	5.0
6.5638	532.80842657	4.0
6.5741	533.042425267	5.0
6.5843	533.27375136	4.0
6.5946	533.506941356	2.0
6.6048	533.737467986	3.0
6.615	533.967597863	4.0
6.6253	534.199582005	2.0
6.6355	534.428916553	1.0
6.6458	534.660098957	1.0
6.656	534.888640924	4.0
6.6662	535.116789554	3.0
6.6765	535.346776485	3.0
6.6867	535.574136633	1.0
6.697	535.803328729	5.0
6.7072	536.02990312	5.0
6.7174	536.25608756	2.0
6.7277	536.484094475	1.0
6.7379	536.709497221	2.0
6.7482	536.936716144	3.0
6.7584	537.161339897	4.0
6.7686	537.385577058	3.0
6.7789	537.611621003	5.0
6.7891	537.835083199	2.0
6.7994	538.060345936	5.0
6.8096	538.283035846	2.0
6.8198	538.505342492	3.0
6.8301	538.729440367	4.0
6.8403	538.95097872	0.0
6.8506	539.174302112	2.0
6.8608	539.395074828	3.0
6.871	539.615467579	4.0
6.8813	539.837636138	1.0
6.8915	540.057267211	2.0
6.9018	540.278667955	2.0
6.912	540.497539982	0.0
6.9222	540.716035315	4.0
6.9325	540.936291168	1.0
6.9427	541.154031381	1.0
6.953	541.373526029	0.0
6.9632	541.590513731	1.0
6.9734	541.807127982	3.0
6.9837	542.025487597	1.0
6.9939	542.241353228	0.0
7.0042	542.458958191	1.0
7.0144	542.67407779	3.0
7.0246	542.888827154	1.0
7.0349	543.105306854	5.0
7.0451	543.319314043	3.0
7.0554	543.535045589	1.0
7.0656	543.748313169	1.0
7.0758	543.9612137	3.0
7.0861	544.175829672	0.0
7.0963	544.387994418	1.0
7.1066	544.601868676	2.0
7.1168	544.813300181	0.0
7.127	545.024367797	1.0
7.1373	545.237136085	0.0
7.1475	545.447474251	2.0
7.1578	545.65950721	3.0
7.168	545.869118447	0.0
7.1782	546.078368928	1.0
7.1885	546.289305439	0.0
7.1987	546.49783275	2.0
7.209	546.708040264	0.0
7.2192	546.915846903	2.0
7.2294	547.123295894	1.0
7.2397	547.332416398	0.0
7.2499	547.539148444	1.0
7.2602	547.747546228	3.0
7.2704	547.953563807	2.0
7.2806	548.159226816	0.0
7.2909	548.366546949	1.0
7.3011	548.571499186	3.0
7.3114	548.778102819	3.0
7.3216	548.982346741	1.0
7.3318	549.186239144	0.0
7.3421	549.391774405	2.0
7.3523	549.594962156	1.0
7.3626	549.799787086	1.0
7.3728	550.002272619	0.0
7.383	550.204409661	2.0
7.3933	550.408175416	0.0
7.4035	550.609613871	1.0
7.4138	550.812675411	1.0
7.424	551.013417694	3.0
7.4342	551.213814487	2.0
7.4445	551.41582597	0.0
7.4547	551.61553019	2.0
7.465	551.816843522	2.0
7.4752	552.015857563	3.0
7.4854	552.214529088	0.0
7.4957	552.414801403	1.0
7.5059	552.612786319	1.0
7.5162	552.812366492	1.0
7.5264	553.009667171	2.0
7.5366	553.206628282	0.0
7.5469	553.405176402	0.0
7.5571	553.601456814	1.0
7.5674	553.799318751	0.0
7.5776	553.994920818	0.0
7.5878	554.19018624	1.0
7.5981	554.387025008	2.0
7.6083	554.581615593	0.0
7.6186	554.777774085	1.0
7.6288	554.971692164	3.0
7.639	555.165276496	3.0
7.6493	555.360420629	1.0
7.6595	555.553335933	0.0
7.6698	555.747805647	0.0
7.68	555.940054236	1.0
7.6902	556.131971951	0.0
7.7005	556.325436038	1.0
7.7107	556.516690485	1.0
7.721	556.709485959	2.0
7.7312	556.900079431	0.0
7.7414	557.090344877	1.0
7.7517	557.282143383	5.0
7.7619	557.471751271	0.0
7.7722	557.66288692	3.0
7.7824	557.851839523	1.0
7.7926	558.040466926	1.0
7.8029	558.230614189	1.0
7.8131	558.418589695	2.0
7.8234	558.608079808	0.0
7.8336	558.79540567	2.0
7.8438	558.982409131	0.0
7.8541	559.170919368	0.0
7.8643	559.357276544	1.0
7.8746	559.545135289	1.0
7.8848	559.730848414	2.0
7.895	559.916241915	1.0
7.9053	560.103129218	1.0
7.9155	560.287881999	0.0
7.9258	560.474123419	0.0
7.936	560.658237693	2.0
7.9462	560.842035093	0.0
7.9565	561.027313436	0.0
7.9667	561.210475633	3.0
7.977	561.395113653	0.0
7.9872	561.57764284	2.0
7.9974	561.759857882	0.0
8.0077	561.943541116	0.0
8.0179	562.125126422	2.0
8.0282	562.308174846	2.0
