TL-DOS Lehrstuhlversuch
detector=R1407601
job_number=2015-11-19-001
irradiation_dose [mSv]=0.05

[BEGIN DATA]
time [sec] 	 temperature [K] 	 photoncount 
0.0	245.980104349	0.0
0.0102	246.828967526	0.0
0.0205	247.684064917	2.0
0.0307	248.528797718	1.0
0.041	249.379734398	1.0
0.0512	250.22035692	0.0
0.0614	251.058941785	1.0
0.0717	251.903685378	1.0
0.0819	252.738189878	3.0
0.0922	253.578823139	1.0
0.1024	254.409267129	0.0
0.1126	255.237698134	0.0
0.1229	256.072213296	1.0
0.1331	256.896613343	1.0
0.1434	257.727067942	1.0
0.1536	258.547456645	1.0
0.1638	259.365856737	0.0
0.1741	260.190267316	1.0
0.1843	261.004685258	2.0
0.1946	261.825084442	0.0
0.2048	262.63553961	0.0
0.215	263.444030247	1.0
0.2253	264.258458593	1.0
0.2355	265.063015297	0.0
0.2458	265.873480819	1.0
0.256	266.674122732	0.0
0.2662	267.4728239	0.0
0.2765	268.277390882	0.0
0.2867	269.07220575	0.0
0.297	269.872857891	0.0
0.3072	270.66380537	0.0
0.3174	271.452835603	1.0
0.3277	272.247660626	0.0
0.3379	273.032851616	0.0
0.3482	273.823809199	0.0
0.3584	274.605179628	0.0
0.3686	275.384656025	0.0
0.3789	276.169857047	0.0
0.3891	276.945540688	0.0
0.3994	277.726921099	0.0
0.4096	278.498830439	0.0
0.4198	279.268868681	0.0
0.4301	280.044562232	0.0
0.4403	280.810853643	0.0
0.4506	281.582772844	0.0
0.4608	282.345335654	0.0
0.471	283.106050022	0.0
0.4813	283.872351222	0.0
0.4915	284.629364126	0.0
0.5018	285.391936677	0.0
0.512	286.145266127	0.0
0.5222	286.896769517	0.0
0.5325	287.653792092	0.0
0.5427	288.401638836	0.0
0.553	289.154977911	0.0
0.5632	289.899185802	0.0
0.5734	290.641589743	0.0
0.5837	291.389446041	0.0
0.5939	292.128237613	0.0
0.6042	292.872455012	0.0
0.6144	293.60765179	0.0
0.6246	294.341066462	0.0
0.6349	295.079867473	0.0
0.6451	295.809713515	0.0
0.6554	296.544919686	0.0
0.6656	297.271214462	0.0
0.6758	297.995748709	0.0
0.6861	298.725604076	1.0
0.6963	299.446612903	0.0
0.7066	300.172916958	0.0
0.7168	300.89041752	0.0
0.727	301.60617887	1.0
0.7373	302.327196909	0.0
0.7475	303.039475526	0.0
0.7578	303.756985255	0.0
0.768	304.465798085	1.0
0.7782	305.172892763	0.0
0.7885	305.88518048	0.0
0.7987	306.588834595	0.0
0.809	307.297656481	0.0
0.8192	307.997886775	0.0
0.8294	308.696419719	0.0
0.8397	309.400082824	0.0
0.8499	310.095216866	0.0
0.8602	310.795456105	1.0
0.8704	311.487207781	0.0
0.8806	312.177282661	0.0
0.8909	312.872425583	0.0
0.9011	313.559142714	0.0
0.9114	314.250903228	0.0
0.9216	314.934278948	0.0
0.9318	315.615998176	0.0
0.9421	316.302724081	0.0
0.9523	316.981126217	1.0
0.9626	317.664510668	0.0
0.9728	318.339611853	0.0
0.983	319.013076601	0.0
0.9933	319.691487404	0.0
1.0035	320.361675226	0.0
1.0138	321.036785035	1.0
1.024	321.703711874	0.0
1.0342	322.369022091	1.0
1.0445	323.039218475	0.0
1.0547	323.701291443	0.0
1.065	324.368226802	0.0
1.0752	325.027078273	0.0
1.0854	325.684332697	0.0
1.0957	326.346414124	0.0
1.1059	327.000470496	1.0
1.1162	327.659330384	0.0
1.1264	328.310204266	2.0
1.1366	328.959500439	0.0
1.1469	329.613565168	0.0
1.1571	330.259702012	0.0
1.1674	330.910584209	0.0
1.1776	331.553577098	1.0
1.1878	332.195011381	0.0
1.1981	332.84115648	1.0
1.2083	333.479469688	0.0
1.2186	334.122470791	0.0
1.2288	334.757678112	0.0
1.239	335.391345699	0.0
1.2493	336.029667062	2.0
1.2595	336.660251366	0.0
1.2698	337.295466801	0.0
1.28	337.922982824	0.0
1.2902	338.548977757	2.0
1.3005	339.179570117	0.0
1.3107	339.8025191	1.0
1.321	340.43004314	0.0
1.3312	341.049960993	0.0
1.3414	341.668376175	2.0
1.3517	342.291333117	0.0
1.3619	342.90673923	1.0
1.3722	343.526665004	1.0
1.3824	344.13907669	0.0
1.3926	344.750003898	0.0
1.4029	345.365417874	1.0
1.4131	345.973372449	2.0
1.4234	346.585791959	0.0
1.4336	347.190788364	0.0
1.4438	347.794318266	1.0
1.4541	348.402280608	1.0
1.4643	349.002873871	0.0
1.4746	349.607878005	1.0
1.4848	350.205548917	1.0
1.495	350.801771082	0.0
1.5053	351.402372017	1.0
1.5155	351.9956931	0.0
1.5258	352.593371647	0.0
1.536	353.183805764	1.0
1.5462	353.772808676	0.0
1.5565	354.366137339	1.0
1.5667	354.952274297	1.0
1.577	355.542715957	0.0
1.5872	356.126000904	0.0
1.5974	356.707871977	1.0
1.6077	357.294016423	3.0
1.6179	357.873056243	1.0
1.6282	358.456348642	0.0
1.6384	359.032570985	0.0
1.6486	359.607396573	1.0
1.6589	360.18644379	1.0
1.6691	360.758472407	3.0
1.6794	361.334702111	1.0
1.6896	361.903947366	0.0
1.6998	362.471812778	0.0
1.7101	363.043848703	1.0
1.7203	363.60895101	0.0
1.7306	364.178203537	1.0
1.7408	364.740556184	4.0
1.751	365.301545696	3.0
1.7613	365.866655223	1.0
1.7715	366.424915087	0.0
1.7818	366.987274918	3.0
1.792	367.542818416	1.0
1.8022	368.097015284	1.0
1.8125	368.65528228	4.0
1.8227	369.206782551	2.0
1.833	369.762333146	3.0
1.8432	370.311149941	3.0
1.8534	370.858636412	2.0
1.8637	371.410143729	3.0
1.8739	371.954966255	2.0
1.8842	372.503790062	1.0
1.8944	373.045961604	4.0
1.9046	373.58681893	1.0
1.9149	374.131648417	2.0
1.9251	374.669874053	7.0
1.9354	375.212052522	5.0
1.9456	375.747659274	2.0
1.9558	376.281967724	2.0
1.9661	376.820200236	4.0
1.9763	377.351908861	1.0
1.9866	377.887522456	4.0
1.9968	378.416643907	5.0
2.007	378.944482775	1.0
2.0173	379.476198193	4.0
2.0275	380.001468716	0.0
2.0378	380.530596926	4.0
2.048	381.053311602	3.0
2.0582	381.574759224	1.0
2.0685	382.100036458	9.0
2.0787	382.618946834	5.0
2.089	383.141668188	5.0
2.0992	383.658053663	7.0
2.1094	384.173187427	0.0
2.1197	384.692104433	3.0
2.1299	385.204731673	4.0
2.1402	385.721123745	5.0
2.1504	386.231256657	3.0
2.1606	386.740153013	9.0
2.1709	387.252786802	5.0
2.1811	387.759206984	3.0
2.1914	388.269346412	7.0
2.2016	388.773302468	7.0
2.2118	389.276036941	1.0
2.2221	389.782463593	4.0
2.2323	390.282751873	4.0
2.2426	390.786714367	6.0
2.2528	391.284568358	12.0
2.263	391.781215558	8.0
2.2733	392.28151023	7.0
2.2835	392.775740857	4.0
2.2938	393.273601209	7.0
2.304	393.765427021	8.0
2.3142	394.256060654	14.0
2.3245	394.750297595	10.0
2.3347	395.238543916	6.0
2.345	395.730376012	8.0
2.3552	396.216246637	7.0
2.3654	396.700939518	12.0
2.3757	397.189192076	12.0
2.3859	397.671526551	8.0
2.3962	398.157403383	8.0
2.4064	398.637390928	12.0
2.4166	399.116214989	12.0
2.4269	399.598555626	16.0
2.4371	400.075049838	18.0
2.4474	400.555043515	15.0
2.4576	401.029219213	17.0
2.4678	401.502245517	9.0
2.4781	401.978745816	7.0
2.4883	402.44947048	12.0
2.4986	402.923652236	9.0
2.5088	403.392086461	7.0
2.519	403.859385207	13.0
2.5293	404.330115885	11.0
2.5395	404.795140861	10.0
2.5498	405.26358107	14.0
2.56	405.72634334	10.0
2.5702	406.18798388	8.0
2.5805	406.653014797	10.0
2.5907	407.112409099	9.0
2.601	407.575177281	8.0
2.6112	408.032336274	11.0
2.6214	408.48838712	9.0
2.6317	408.947787291	12.0
2.6419	409.401619097	6.0
2.6522	409.85878393	8.0
2.6624	410.310407493	11.0
2.6726	410.760936326	11.0
2.6829	411.21477393	10.0
2.6931	411.663110592	5.0
2.7034	412.114739924	6.0
2.7136	412.560895081	9.0
2.7238	413.005968764	14.0
2.7341	413.454311154	6.0
2.7443	413.897219209	8.0
2.7546	414.343380066	7.0
2.7648	414.784133031	8.0
2.775	415.223817616	13.0
2.7853	415.66673133	8.0
2.7955	416.10427651	7.0
2.8058	416.545035105	9.0
2.816	416.980451289	7.0
2.8262	417.41481203	12.0
2.8365	417.8523628	4.0
2.8467	418.284610039	4.0
2.857	418.720031786	3.0
2.8672	419.150175808	6.0
2.8774	419.579277168	5.0
2.8877	420.01152993	2.0
2.8979	420.438543379	10.0
2.9082	420.868692896	6.0
2.9184	421.293628595	7.0
2.9286	421.717534255	10.0
2.9389	422.144553159	3.0
2.9491	422.56639619	9.0
2.9594	422.991337317	4.0
2.9696	423.411127754	14.0
2.9798	423.829900626	5.0
2.9901	424.251749046	3.0
3.0003	424.668484264	6.0
3.0106	425.088280065	3.0
3.0208	425.502987543	6.0
3.031	425.916689776	7.0
3.0413	426.333430318	7.0
3.0515	426.745119569	4.0
3.0618	427.159832345	6.0
3.072	427.56951841	12.0
3.0822	427.978211401	8.0
3.0925	428.389905912	2.0
3.1027	428.796610296	11.0
3.113	429.206301594	6.0
3.1232	429.611027046	3.0
3.1334	430.014771449	5.0
3.1437	430.421481028	13.0
3.1539	430.823260903	9.0
3.1642	431.227991525	4.0
3.1744	431.627816429	4.0
3.1846	432.026672163	12.0
3.1949	432.42845717	8.0
3.2051	432.825372162	13.0
3.2154	433.225202174	11.0
3.2256	433.620185867	5.0
3.2358	434.014212126	6.0
3.2461	434.411132189	7.0
3.2563	434.803241204	9.0
3.2666	435.198229944	16.0
3.2768	435.588431046	7.0
3.287	435.977686305	6.0
3.2973	436.36980033	8.0
3.3075	436.757161562	9.0
3.3178	437.147367649	4.0
3.328	437.532844068	8.0
3.3382	437.917386098	9.0
3.3485	438.304752279	8.0
3.3587	438.687423214	9.0
3.369	439.072904558	12.0
3.3792	439.453713503	11.0
3.3894	439.833599373	13.0
3.3997	440.216275197	11.0
3.4099	440.594312628	15.0
3.4202	440.975126438	6.0
3.4304	441.351324424	10.0
3.4406	441.726610511	13.0
3.4509	442.104652771	5.0
3.4611	442.478112801	13.0
3.4714	442.854315594	17.0
3.4816	443.225958451	11.0
3.4918	443.596700452	8.0
3.5021	443.970165253	10.0
3.5123	444.339103307	10.0
3.5226	444.710750913	10.0
3.5328	445.077893798	10.0
3.543	445.444146734	9.0
3.5533	445.813089501	8.0
3.5635	446.177560332	5.0
3.5738	446.544707908	5.0
3.584	446.907405306	10.0
3.5942	447.269223532	12.0
3.6045	447.63369902	11.0
3.6147	447.993756719	7.0
3.625	448.356458752	15.0
3.6352	448.714764492	6.0
3.6454	449.072201704	9.0
3.6557	449.432264004	8.0
3.6659	449.787962007	7.0
3.6762	450.146272325	8.0
3.6864	450.500239582	15.0
3.6966	450.853348828	4.0
3.7069	451.209051376	0.0
3.7171	451.560442471	8.0
3.7274	451.914414251	12.0
3.7376	452.264095557	16.0
3.7478	452.612929241	7.0
3.7581	452.964324826	7.0
3.7683	453.311461163	7.0
3.7786	453.661146937	8.0
3.7888	454.006594187	11.0
3.799	454.351204079	13.0
3.8093	454.698344851	6.0
3.8195	455.041277949	8.0
3.8298	455.386729613	10.0
3.84	455.727994075	10.0
3.8502	456.068431318	3.0
3.8605	456.411368796	6.0
3.8707	456.750149548	5.0
3.881	457.09141837	5.0
3.8912	457.428550691	10.0
3.9014	457.764865808	8.0
3.9117	458.103650888	11.0
3.9219	458.438329571	5.0
3.9322	458.775466199	5.0
3.9424	459.108516412	11.0
3.9526	459.440759316	2.0
3.9629	459.775442275	10.0
3.9731	460.10606856	12.0
3.9834	460.439123027	7.0
3.9936	460.768140559	8.0
4.0038	461.096360557	7.0
4.0141	461.426991066	3.0
4.0243	461.75361402	3.0
4.0346	462.082635755	9.0
4.0448	462.407669435	7.0
4.055	462.731915238	6.0
4.0653	463.058542365	6.0
4.0755	463.381210461	9.0
4.0858	463.706248294	7.0
4.096	464.02734636	8.0
4.1062	464.347666089	6.0
4.1165	464.670338308	8.0
4.1267	464.989099433	4.0
4.137	465.310201602	6.0
4.1472	465.627411708	3.0
4.1574	465.943852901	10.0
4.1677	466.262618099	7.0
4.1779	466.577519561	9.0
4.1882	466.894733719	2.0
4.1984	467.208102942	5.0
4.2086	467.520712561	9.0
4.2189	467.835618046	11.0
4.2291	468.146706578	4.0
4.2394	468.460079804	6.0
4.2496	468.76965465	5.0
4.2598	469.07847909	6.0
4.2701	469.389571596	4.0
4.2803	469.696893367	4.0
4.2906	470.006472167	10.0
4.3008	470.31229858	11.0
4.311	470.617383673	7.0
4.3213	470.92470937	13.0
4.3315	471.228309988	3.0
4.3418	471.534140307	4.0
4.352	471.836263673	5.0
4.3622	472.137654696	8.0
4.3725	472.441259193	5.0
4.3827	472.741183716	7.0
4.393	473.043310942	5.0
4.4032	473.341776099	2.0
4.4134	473.639517782	2.0
4.4237	473.939446136	5.0
4.4339	474.235739075	8.0
4.4442	474.534208045	6.0
4.4544	474.829059289	7.0
4.4646	475.123195818	8.0
4.4749	475.419492542	5.0
4.4851	475.712197869	11.0
4.4954	476.00705288	6.0
4.5056	476.298333969	3.0
4.5158	476.588908997	6.0
4.5261	476.881618063	6.0
4.5363	477.170779218	7.0
4.5466	477.462064028	3.0
4.5568	477.749818191	9.0
4.567	478.036874841	4.0
4.5773	478.32603969	10.0
4.5875	478.611699588	5.0
4.5978	478.899457427	7.0
4.608	479.183727367	12.0
4.6182	479.467308242	10.0
4.6285	479.752971789	4.0
4.6387	480.035172823	5.0
4.649	480.319446396	3.0
4.6592	480.600274304	8.0
4.6694	480.880421488	8.0
4.6797	481.162626128	8.0
4.6899	481.44141018	3.0
4.7002	481.722241675	3.0
4.7104	481.999669227	2.0
4.7206	482.276424298	8.0
4.7309	482.555211911	6.0
4.7411	482.830620355	6.0
4.7514	483.108051451	3.0
4.7616	483.382119819	4.0
4.7718	483.655523849	9.0
4.7821	483.930935811	10.0
4.7923	484.20300952	5.0
4.8026	484.477081389	4.0
4.8128	484.747831248	8.0
4.823	485.017924813	6.0
4.8333	485.290001997	8.0
4.8435	485.558781348	2.0
4.8538	485.829534666	14.0
4.864	486.097006197	3.0
4.8742	486.363829381	5.0
4.8845	486.632612166	9.0
4.8947	486.898137048	6.0
4.905	487.165611997	6.0
4.9152	487.429844895	5.0
4.9254	487.693437297	6.0
4.9357	487.958965572	5.0
4.9459	488.221275392	4.0
4.9562	488.485511667	5.0
4.9664	488.746545147	2.0
4.9766	489.006945886	1.0
4.9869	489.269259057	3.0
4.9971	489.528392745	7.0
5.0074	489.78942956	4.0
5.0176	490.047302362	10.0
5.0278	490.304550083	6.0
5.0381	490.563687082	3.0
5.0483	490.819683094	6.0
5.0586	491.07755919	7.0
5.0688	491.332309584	6.0
5.079	491.586442466	4.0
5.0893	491.842441749	6.0
5.0995	492.095338078	3.0
5.1098	492.350091726	4.0
5.12	492.601757518	3.0
5.1302	492.852813277	5.0
5.1405	493.105712836	3.0
5.1507	493.355547014	3.0
5.161	493.607216022	4.0
5.1712	493.855834563	7.0
5.1814	494.103850456	8.0
5.1917	494.353687825	1.0
5.2019	494.600496929	5.0
5.2122	494.849118646	5.0
5.2224	495.094726833	6.0
5.2326	495.339739669	6.0
5.2429	495.586551925	6.0
5.2531	495.830372584	5.0
5.2634	496.075983908	10.0
5.2736	496.318618191	8.0
5.2838	496.560664331	5.0
5.2941	496.804488104	5.0
5.3043	497.045356503	8.0
5.3146	497.287993885	2.0
5.3248	497.527690272	3.0
5.335	497.766805639	8.0
5.3453	498.007677114	8.0
5.3555	498.245628999	8.0
5.3658	498.485328449	8.0
5.376	498.722122514	5.0
5.3862	498.958342593	7.0
5.3965	499.196297519	8.0
5.4067	499.431368205	8.0
5.417	499.668165295	3.0
5.4272	499.90209218	6.0
5.4374	500.13545203	6.0
5.4477	500.370525719	4.0
5.4579	500.602750092	5.0
5.4682	500.836679966	10.0
5.4784	501.067774388	6.0
5.4886	501.29830864	2.0
5.4989	501.530535981	4.0
5.5091	501.759948505	7.0
5.5194	501.99104588	2.0
5.5296	502.219342135	4.0
5.5398	502.447085003	5.0
5.5501	502.676500459	5.0
5.5603	502.903135182	3.0
5.5706	503.131434354	4.0
5.5808	503.356966324	6.0
5.591	503.581951607	5.0
5.6013	503.808589225	8.0
5.6115	504.032479781	4.0
5.6218	504.258014632	4.0
5.632	504.480815787	4.0
5.6422	504.703076875	5.0
5.6525	504.926970291	5.0
5.6627	505.148149907	3.0
5.673	505.370953908	6.0
5.6832	505.591057314	8.0
5.6934	505.810627192	5.0
5.7037	506.031809634	1.0
5.7139	506.250311135	6.0
5.7242	506.470417352	5.0
5.7344	506.687855674	7.0
5.7446	506.904766929	7.0
5.7549	507.123271221	3.0
5.7651	507.339127034	9.0
5.7754	507.556568134	6.0
5.7856	507.771373641	2.0
5.7958	507.985658464	0.0
5.8061	508.201517034	1.0
5.8163	508.414759195	2.0
5.8266	508.629567447	4.0
5.8368	508.841772019	4.0
5.847	509.053462211	7.0
5.8573	509.266707096	5.0
5.8675	509.47736725	4.0
5.8778	509.689574534	6.0
5.888	509.899209664	2.0
5.8982	510.108336641	2.0
5.9085	510.318999488	2.0
5.9187	510.5271089	1.0
5.929	510.736746709	3.0
5.9392	510.943843508	3.0
5.9494	511.150438308	0.0
5.9597	511.35855038	2.0
5.9699	511.564139936	3.0
5.9802	511.771239381	5.0
5.9904	511.975828585	3.0
6.0006	512.179921867	2.0
6.0109	512.38551405	5.0
6.0211	512.58861426	4.0
6.0314	512.793206078	2.0
6.0416	512.995318049	1.0
6.0518	513.196940103	3.0
6.0621	513.400042908	2.0
6.0723	513.600683915	2.0
6.0826	513.802798468	4.0
6.0928	514.002463201	1.0
6.103	514.20164395	1.0
6.1133	514.40228752	5.0
6.1235	514.6004991	0.0
6.1338	514.800166384	3.0
6.144	514.997413512	2.0
6.1542	515.194182515	1.0
6.1645	515.392396627	4.0
6.1747	515.588208197	3.0
6.185	515.785457844	2.0
6.1952	515.980316639	1.0
6.2054	516.174703098	1.0
6.2157	516.370517169	5.0
6.2259	516.563957789	1.0
6.2362	516.758819073	1.0
6.2464	516.951318453	0.0
6.2566	517.143351218	1.0
6.2669	517.336794309	1.0
6.2771	517.527892686	1.0
6.2874	517.720394526	3.0
6.2976	517.910563061	3.0
6.3078	518.100270631	2.0
6.3181	518.291371449	1.0
6.3283	518.480155944	0.0
6.3386	518.670326909	0.0
6.3488	518.858192822	1.0
6.359	519.04560335	2.0
6.3693	519.234390257	1.0
6.3795	519.420888888	3.0
6.3898	519.608757201	0.0
6.4	519.794348372	1.0
6.4102	519.979489672	4.0
6.4205	520.165990686	2.0
6.4307	520.350231131	0.0
6.441	520.535824672	2.0
6.4512	520.719168645	1.0
6.4614	520.902068194	3.0
6.4717	521.086310992	2.0
6.4819	521.268320593	1.0
6.4922	521.451666908	1.0
6.5024	521.632790892	0.0
6.5126	521.813475833	1.0
6.5229	521.99548776	2.0
6.5331	522.175293529	1.0
6.5434	522.356419827	0.0
6.5536	522.535350702	1.0
6.5638	522.713847851	1.0
6.5741	522.893655918	2.0
6.5843	523.071284541	2.0
6.5946	523.250217702	1.0
6.6048	523.426982023	0.0
6.615	523.603317871	1.0
6.6253	523.780948763	0.0
6.6355	523.9564266	0.0
6.6458	524.13319318	1.0
6.656	524.307817182	0.0
6.6662	524.482017897	0.0
6.6765	524.657497976	1.0
6.6867	524.83085107	0.0
6.697	525.005477303	0.0
6.7072	525.1779869	0.0
6.7174	525.350078336	0.0
6.7277	525.523433645	3.0
6.7379	525.694687723	0.0
6.7482	525.867199525	0.0
6.7584	526.037620319	2.0
6.7686	526.207628016	2.0
6.7789	526.378884282	0.0
6.7891	526.54806476	0.0
6.7994	526.718487732	1.0
6.8096	526.886845016	0.0
6.8198	527.054794204	1.0
6.8301	527.223976844	0.0
6.8403	527.391108829	2.0
6.8506	527.559468264	1.0
6.8608	527.725787023	0.0
6.871	527.891702628	1.0
6.8813	528.058836748	0.0
6.8915	528.223945045	0.0
6.9018	528.390265929	1.0
6.912	528.554570846	1.0
6.9222	528.718477491	1.0
6.9325	528.883587897	1.0
6.9427	529.046697008	0.0
6.953	529.211004025	0.0
6.9632	529.373319484	1.0
6.9734	529.535241493	0.0
6.9837	529.698352689	1.0
6.9939	529.859486822	0.0
7.0042	530.021804355	1.0
7.0144	530.182154446	2.0
7.0246	530.342115851	1.0
7.0349	530.503252043	0.0
7.0451	530.662435111	1.0
7.0554	530.822787251	0.0
7.0656	530.98119577	0.0
7.0758	531.13922031	0.0
7.0861	531.298405412	0.0
7.0963	531.45566104	0.0
7.1066	531.614071583	1.0
7.1168	531.770562041	0.0
7.127	531.926673168	0.0
7.1373	532.083930805	0.0
7.1475	532.23928233	0.0
7.1578	532.395774787	0.0
7.168	532.550370407	1.0
7.1782	532.70459129	0.0
7.1885	532.8599448	0.0
7.1987	533.013415278	0.0
7.209	533.168012873	3.0
7.2192	533.320736599	0.0
7.2294	533.473090124	2.0
7.2397	533.626562564	0.0
7.2499	533.778174771	0.0
7.2602	533.930900448	1.0
7.2704	534.081774945	0.0
7.2806	534.232283724	0.0
7.2909	534.383897869	0.0
7.3011	534.533674307	0.0
7.3114	534.684550731	2.0
7.3216	534.833598391	1.0
7.3318	534.98228476	0.0
7.3421	535.132063112	0.0
7.3523	535.280026007	0.0
7.3626	535.429075571	0.0
7.3728	535.576318512	1.0
7.383	535.723204539	0.0
7.3933	535.871169325	1.0
7.4035	536.017340637	0.0
7.4138	536.16458546	0.0
7.424	536.310045536	2.0
7.4342	536.455153019	1.0
7.4445	536.601326199	2.0
7.4547	536.745727621	1.0
7.465	536.891189555	0.0
7.4752	537.034888353	0.0
7.4854	537.178238827	0.0
7.4957	537.322642095	0.0
7.5059	537.465295057	1.0
7.5162	537.608995691	0.0
7.5264	537.750954537	0.0
7.5366	537.892569277	0.0
7.5469	538.035224062	0.0
7.5571	538.176149736	0.0
7.5674	538.318110396	0.0
7.5776	538.458350357	2.0
7.5878	538.59825038	0.0
7.5981	538.739177854	0.0
7.6083	538.878397154	1.0
7.6186	539.018638908	0.0
7.6288	539.157180798	1.0
7.639	539.295386865	0.0
7.6493	539.434607944	0.0
7.6595	539.572141531	0.0
7.6698	539.710685192	0.0
7.68	539.847549572	1.0
7.6902	539.984082195	0.0
7.7005	540.121617539	1.0
7.7107	540.257485825	0.0
7.721	540.394351954	0.0
7.7312	540.529559135	0.0
7.7414	540.664438576	4.0
7.7517	540.800308598	0.0
7.7619	540.934531746	2.0
7.7722	541.069740655	1.0
7.7824	541.203310703	0.0
7.7926	541.33655698	0.0
7.8029	541.470781843	0.0
7.8131	541.603379774	1.0
7.8234	541.736951529	0.0
7.8336	541.868904268	0.0
7.8438	542.000537155	2.0
7.8541	542.13313678	2.0
7.8643	542.264129171	0.0
7.8746	542.396083596	0.0
7.8848	542.526438608	1.0
7.895	542.656477641	0.0
7.9053	542.787471706	0.0
7.9155	542.916877999	0.0
7.9258	543.047234677	0.0
7.936	543.176011308	0.0
7.9462	543.304475786	0.0
7.9565	543.433883732	0.0
7.9667	543.561723131	0.0
7.977	543.690501407	0.0
7.9872	543.817718769	0.0
7.9974	543.944627757	1.0
8.0077	544.07246879	2.0
8.0179	544.198760268	0.0
8.0282	544.325979254	1.0
8.0384	544.451656227	0.0
8.0486	544.577028559	0.0
8.0589	544.703321651	0.0
8.0691	544.82808395	2.0
8.0794	544.953762528	0.0
8.0896	545.077917762	2.0
8.0998	545.201772046	1.0
8.1101	545.32653594	2.0
8.1203	545.449787576	0.0
8.1306	545.573944397	1.0
8.1408	545.696596319	0.0
8.151	545.818950935	0.0
8.1613	545.942204146	0.0
