TL-DOS Lehrstuhlversuch
detector=R1407203
job_number=2015-10-26-005
irradiation_dose [mSv]=10.0

[BEGIN DATA]
time [sec] 	 temperature [K] 	 photoncount 
0.0	128.73025256	0.0
0.0102	130.489565019	0.0
0.0205	132.258665704	1.0
0.0307	134.003234116	1.0
0.041	135.757508723	2.0
0.0512	137.487456652	1.0
0.0614	139.210175712	0.0
0.0717	140.942479405	1.0
0.0819	142.650761092	0.0
0.0922	144.368547087	1.0
0.1024	146.062512394	1.0
0.1126	147.749399193	1.0
0.1229	149.445671265	3.0
0.1331	151.118420984	2.0
0.1434	152.800477324	2.0
0.1536	154.459208442	0.0
0.1638	156.111008283	0.0
0.1741	157.771998185	2.0
0.1843	159.409954996	0.0
0.1946	161.057024851	0.0
0.2048	162.681254645	1.0
0.215	164.298697331	1.0
0.2253	165.925138928	1.0
0.2355	167.529026517	2.0
0.2458	169.1418376	0.0
0.256	170.732283692	0.0
0.2662	172.316083846	2.0
0.2765	173.908695735	0.0
0.2867	175.479222736	0.0
0.297	177.058487624	0.0
0.3072	178.615852709	0.0
0.3174	180.16671009	0.0
0.3277	181.726195924	0.0
0.3379	183.264056232	0.0
0.3482	184.81047268	1.0
0.3584	186.335444836	0.0
0.3686	187.854044649	1.0
0.3789	189.381093444	0.0
0.3891	190.88696652	0.0
0.3994	192.40121777	0.0
0.4096	193.894470766	0.0
0.4198	195.381483962	0.0
0.4301	196.876770403	0.0
0.4403	198.351321576	1.0
0.4506	199.834076658	0.0
0.4608	201.296270247	0.0
0.471	202.752353823	0.0
0.4813	204.216538561	0.0
0.4915	205.660419321	1.0
0.5018	207.112333351	1.0
0.512	208.544113563	0.0
0.5222	209.969910849	0.0
0.5325	211.403640794	0.0
0.5427	212.817489082	0.0
0.553	214.239203548	0.0
0.5632	215.641202976	0.0
0.5734	217.037343922	0.0
0.5837	218.441252529	0.0
0.5939	219.825693013	0.0
0.6042	221.217836061	0.0
0.6144	222.590674141	0.0
0.6246	223.957775593	0.0
0.6349	225.332483141	0.0
0.6451	226.6881275	0.0
0.6554	228.05131421	1.0
0.6656	229.395597492	0.0
0.6758	230.734263468	0.0
0.6861	232.080377333	1.0
0.6963	233.407824521	0.0
0.7066	234.74265718	0.0
0.7168	236.058979599	0.0
0.727	237.369801552	0.0
0.7373	238.687916479	1.0
0.7475	239.987752991	0.0
0.7578	241.29482136	0.0
0.768	242.583764497	0.0
0.7782	243.867321576	1.0
0.7885	245.158019938	0.0
0.7987	246.430820073	1.0
0.809	247.710701643	0.0
0.8192	248.972834983	0.0
0.8294	250.229694294	0.0
0.8397	251.49354635	0.0
0.8499	252.73987246	0.0
0.8602	253.993132711	1.0
0.8704	255.229013894	0.0
0.8806	256.459730746	0.0
0.8909	257.697294895	0.0
0.9011	258.917697635	1.0
0.9114	260.144890287	1.0
0.9216	261.355065352	0.0
0.9318	262.560183504	1.0
0.9421	263.77200653	0.0
0.9523	264.967025101	0.0
0.9626	266.168692355	0.0
0.9728	267.353695985	1.0
0.983	268.533747885	0.0
0.9933	269.7203652	0.0
1.0035	270.890527588	1.0
1.0138	272.067200369	0.0
1.024	273.227556126	1.0
1.0342	274.383063148	1.0
1.0445	275.544999025	0.0
1.0547	276.690822236	0.0
1.065	277.843020424	1.0
1.0752	278.979240979	1.0
1.0854	280.110713652	4.0
1.0957	281.248481461	1.0
1.1059	282.370471745	3.0
1.1162	283.498704407	3.0
1.1264	284.611291769	1.0
1.1366	285.719230004	3.0
1.1469	286.833332437	2.0
1.1571	287.931985514	2.0
1.1674	289.03675113	3.0
1.1776	290.126196865	2.0
1.1878	291.211090173	3.0
1.1981	292.302019466	2.0
1.2083	293.377820747	4.0
1.2186	294.459607426	1.0
1.2288	295.526392876	5.0
1.239	296.588720589	6.0
1.2493	297.656958739	0.0
1.2595	298.710383537	2.0
1.2698	299.769669238	3.0
1.28	300.814265732	3.0
1.2902	301.85449721	2.0
1.3005	302.900516189	3.0
1.3107	303.932029931	1.0
1.321	304.96928267	5.0
1.3312	305.992151736	1.0
1.3414	307.010746577	3.0
1.3517	308.035008539	2.0
1.3619	309.045066972	7.0
1.3722	310.060745032	7.0
1.3824	311.062338595	2.0
1.3926	312.059746838	4.0
1.4029	313.062704326	5.0
1.4131	314.051753715	14.0
1.4234	315.046305845	7.0
1.4336	316.027066434	4.0
1.4438	317.003728755	12.0
1.4541	317.985824899	9.0
1.4643	318.95430223	11.0
1.4746	319.928167845	5.0
1.4848	320.888528781	9.0
1.495	321.844876693	14.0
1.5053	322.806545404	6.0
1.5155	323.754878572	14.0
1.5258	324.708487949	8.0
1.536	325.648873541	10.0
1.5462	326.58532958	11.0
1.5565	327.526995746	23.0
1.5667	328.455603747	21.0
1.577	329.389378211	19.0
1.5872	330.310203944	22.0
1.5974	331.227181856	22.0
1.6077	332.149261528	15.0
1.6179	333.05855464	21.0
1.6282	333.972906755	24.0
1.6384	334.874579469	8.0
1.6486	335.772484398	28.0
1.6589	336.67538497	34.0
1.6691	337.565764941	32.0
1.6794	338.461098688	33.0
1.6896	339.344016764	30.0
1.6998	340.223245424	41.0
1.7101	341.107365817	42.0
1.7203	341.979226037	38.0
1.7306	342.855936995	49.0
1.7408	343.720490526	38.0
1.751	344.58143138	60.0
1.7613	345.44716222	49.0
1.7715	346.300887896	59.0
1.7818	347.159363416	68.0
1.792	348.005934381	79.0
1.8022	348.848967812	72.0
1.8125	349.696691599	62.0
1.8227	350.532659926	72.0
1.833	351.373279302	72.0
1.8432	352.202241736	97.0
1.8534	353.027740215	78.0
1.8637	353.857831492	112.0
1.8739	354.676411821	108.0
1.8842	355.499546457	103.0
1.8944	356.311266614	108.0
1.9046	357.119594866	124.0
1.9149	357.932420386	137.0
1.9251	358.733974384	132.0
1.9354	359.53998796	167.0
1.9456	360.334824476	163.0
1.9558	361.126339639	162.0
1.9661	361.922258527	174.0
1.9763	362.707140339	189.0
1.9866	363.49638897	213.0
1.9968	364.274693022	229.0
2.007	365.049744805	245.0
2.0173	365.829108716	257.0
2.0275	366.59766512	267.0
2.0378	367.370497514	276.0
2.048	368.132612975	290.0
2.0582	368.891543813	295.0
2.0685	369.654697088	279.0
2.0787	370.40726765	343.0
2.089	371.164025263	331.0
2.0992	371.910288852	367.0
2.1094	372.653434058	404.0
2.1197	373.400713875	428.0
2.1299	374.137631098	384.0
2.1402	374.878648282	430.0
2.1504	375.609389716	467.0
2.1606	376.337077628	487.0
2.1709	377.068814153	494.0
2.1811	377.790403623	550.0
2.1914	378.516007776	535.0
2.2016	379.231549913	567.0
2.2118	379.944102041	610.0
2.2221	380.660618571	645.0
2.2323	381.367199104	688.0
2.2426	382.077710814	716.0
2.2528	382.778369797	766.0
2.263	383.476100962	783.0
2.2733	384.177714071	804.0
2.2835	384.869597849	799.0
2.2938	385.565331037	847.0
2.304	386.251416433	905.0
2.3142	386.934634909	944.0
2.3245	387.621654584	865.0
2.3347	388.299147298	1034.0
2.345	388.980409355	951.0
2.3552	389.652224292	1044.0
2.3654	390.32123194	1069.0
2.3757	390.993961724	1088.0
2.3859	391.657362705	1114.0
2.3962	392.324454627	1119.0
2.4064	392.982295928	1240.0
2.4166	393.637388332	1201.0
2.4269	394.296125451	1298.0
2.4371	394.945727805	1281.0
2.4474	395.598944329	1311.0
2.4576	396.243102643	1380.0
2.4678	396.884569236	1301.0
2.4781	397.529604736	1387.0
2.4883	398.165695472	1400.0
2.4986	398.805325204	1471.0
2.5088	399.436085135	1461.0
2.519	400.064209333	1504.0
2.5293	400.695828204	1538.0
2.5395	401.318688361	1499.0
2.5498	401.945013904	1466.0
2.56	402.562654136	1590.0
2.5702	403.177713458	1528.0
2.5805	403.796194764	1492.0
2.5907	404.406099537	1552.0
2.601	405.019397615	1541.0
2.6112	405.624191036	1526.0
2.6214	406.226457229	1433.0
2.6317	406.83207423	1410.0
2.6419	407.429293087	1448.0
2.6522	408.02983467	1464.0
2.6624	408.622048491	1432.0
2.6726	409.211787651	1364.0
2.6829	409.804807921	1345.0
2.6931	410.389604728	1350.0
2.7034	410.977655149	1356.0
2.7136	411.557551023	1304.0
2.7238	412.135023709	1285.0
2.7341	412.715709259	1229.0
2.7443	413.288342392	1173.0
2.7546	413.864161465	1138.0
2.7648	414.431995604	1130.0
2.775	414.997456956	1105.0
2.7853	415.566064346	1029.0
2.7955	416.126786808	1079.0
2.8058	416.690628942	983.0
2.816	417.246652229	992.0
2.8262	417.800352081	988.0
2.8365	418.357132535	979.0
2.8467	418.906192065	917.0
2.857	419.458306379	948.0
2.8672	420.002764476	939.0
2.8774	420.544947466	925.0
2.8877	421.090146981	867.0
2.8979	421.627786167	901.0
2.9082	422.168416598	844.0
2.9184	422.701550059	867.0
2.9286	423.232455736	883.0
2.9389	423.766315194	869.0
2.9491	424.292771577	819.0
2.9594	424.822156986	861.0
2.9696	425.344201363	918.0
2.9798	425.864064292	891.0
2.9901	426.386819565	993.0
3.0003	426.902325745	998.0
3.0106	427.420700028	1009.0
3.0208	427.931885971	1056.0
3.031	428.44093584	1013.0
3.0413	428.952817892	1038.0
3.0515	429.457601631	1066.0
3.0618	429.965193819	1103.0
3.072	430.465747181	1089.0
3.0822	430.9642089	1184.0
3.0925	431.465443893	1180.0
3.1027	431.959728216	1195.0
3.113	432.456762573	1226.0
3.1232	432.94690451	1222.0
3.1334	433.43499831	1310.0
3.1437	433.925807701	1274.0
3.1539	434.409810995	1300.0
3.1642	434.896507122	1371.0
3.1744	435.376454191	1376.0
3.1846	435.854395724	1460.0
3.1949	436.334996363	1411.0
3.2051	436.808932471	1484.0
3.2154	437.285505401	1554.0
3.2256	437.755469653	1468.0
3.2358	438.223470084	1559.0
3.2461	438.694074312	1564.0
3.2563	439.15815263	1585.0
3.2666	439.624812925	1572.0
3.2768	440.085002	1601.0
3.287	440.543268102	1540.0
3.2973	441.004083842	1692.0
3.3075	441.45850941	1713.0
3.3178	441.915463251	1705.0
3.328	442.366080472	1759.0
3.3382	442.814814717	1699.0
3.3485	443.266045568	1694.0
3.3587	443.711019163	1755.0
3.369	444.158468441	1851.0
3.3792	444.599712902	1687.0
3.3894	445.03911355	1757.0
3.3997	445.480958877	1804.0
3.4099	445.916677097	1764.0
3.4202	446.354819507	1755.0
3.4304	446.786886158	1820.0
3.4406	447.217147348	1740.0
3.4509	447.649802368	1762.0
3.4611	448.076457723	1760.0
3.4714	448.505486845	1746.0
3.4816	448.928566584	1831.0
3.4918	449.349878415	1750.0
3.5021	449.773534284	1715.0
3.5123	450.19131528	1786.0
3.5226	450.61142067	1802.0
3.5328	451.025700422	1696.0
3.543	451.438249039	1731.0
3.5533	451.853092939	1758.0
3.5635	452.262184162	1627.0
3.5738	452.673551431	1669.0
3.584	453.079214235	1689.0
3.5942	453.483181912	1616.0
3.6045	453.889397129	1604.0
3.6147	454.289979324	1580.0
3.625	454.692790225	1668.0
3.6352	455.090015312	1596.0
3.6454	455.485580529	1497.0
3.6557	455.883346539	1532.0
3.6659	456.275596693	1513.0
3.6762	456.670029196	1500.0
3.6864	457.058992069	1483.0
3.6966	457.446329598	1583.0
3.7069	457.835822143	1406.0
3.7171	458.21991356	1534.0
3.7274	458.606141935	1446.0
3.7376	458.987014446	1476.0
3.7478	459.36629542	1526.0
3.7581	459.747686587	1422.0
3.7683	460.123788969	1394.0
3.7786	460.501983859	1345.0
3.7888	460.874934287	1371.0
3.799	461.246326282	1439.0
3.8093	461.619784577	1422.0
3.8195	461.988064094	1417.0
3.8298	462.358392594	1327.0
3.84	462.723585718	1359.0
3.8502	463.087252822	1373.0
3.8605	463.452943249	1393.0
3.8707	463.813562614	1336.0
3.881	464.176188345	1354.0
3.8912	464.533785514	1308.0
3.9014	464.889888405	1385.0
3.9117	465.247972533	1359.0
3.9219	465.601091077	1351.0
3.9322	465.956174255	1454.0
3.9424	466.306333464	1405.0
3.9526	466.655029475	1443.0
3.9629	467.005665515	1385.0
3.9731	467.351439254	1382.0
3.9834	467.699136762	1372.0
3.9936	468.042012719	1340.0
4.0038	468.383455913	1399.0
4.0141	468.726798783	1380.0
4.0243	469.065380487	1399.0
4.0346	469.405845947	1408.0
4.0448	469.741590142	1370.0
4.055	470.075931376	1445.0
4.0653	470.412132772	1457.0
4.0755	470.743672035	1443.0
4.0858	471.077055871	1448.0
4.096	471.405816645	1440.0
4.1062	471.733203638	1376.0
4.1165	472.062412103	1299.0
4.1267	472.387055406	1400.0
4.137	472.713504915	1353.0
4.1472	473.035427521	1343.0
4.1574	473.35600492	1385.0
4.1677	473.678365906	1409.0
4.1779	473.996256683	1429.0
4.1882	474.315916098	1469.0
4.1984	474.631142768	1401.0
4.2086	474.945052213	1384.0
4.2189	475.260708145	1383.0
4.2291	475.571986848	1381.0
4.2394	475.884997402	1334.0
4.2496	476.193667412	1385.0
4.2598	476.501047593	1323.0
4.2701	476.810137936	1436.0
4.2803	477.114942095	1322.0
4.2906	477.421442083	1376.0
4.3008	477.723691809	1332.0
4.311	478.024678536	1328.0
4.3213	478.327339851	1312.0
4.3315	478.625804137	1340.0
4.3418	478.925928977	1391.0
4.352	479.22189196	1311.0
4.3622	479.516618214	1271.0
4.3725	479.812984226	1266.0
4.3827	480.105240505	1301.0
4.393	480.3991228	1251.0
4.4032	480.688929804	1333.0
4.4134	480.977525802	1334.0
4.4237	481.267727452	1301.0
4.4339	481.55390485	1276.0
4.4442	481.841674444	1294.0
4.4544	482.125453512	1273.0
4.4646	482.408046762	1272.0
4.4749	482.692212267	1319.0
4.4851	482.972437224	1302.0
4.4954	483.25422126	1275.0
4.5056	483.532097771	1214.0
4.5158	483.80881313	1242.0
4.5261	484.087068041	1229.0
4.5363	484.361464367	1247.0
4.5466	484.637387343	1201.0
4.5568	484.90948407	1300.0
4.567	485.180443797	1232.0
4.5773	485.452911054	1204.0
4.5875	485.721599983	1203.0
4.5978	485.991783807	1138.0
4.608	486.258220969	1172.0
4.6182	486.52354478	1217.0
4.6285	486.790344764	1161.0
4.6387	487.05344501	1192.0
4.649	487.318009057	1150.0
4.6592	487.578904371	1122.0
4.6694	487.838709493	1215.0
4.6797	488.099960082	1125.0
4.6899	488.357587888	1141.0
4.7002	488.616649048	1191.0
4.7104	488.872117784	1135.0
4.7206	489.126519003	1172.0
4.7309	489.382335625	1080.0
4.7411	489.634604816	1192.0
4.7514	489.888277549	1143.0
4.7616	490.138432579	1171.0
4.7718	490.387542296	1183.0
4.7821	490.638037976	1070.0
4.7923	490.885060011	1050.0
4.8026	491.133456394	1116.0
4.8128	491.378408242	1149.0
4.823	491.62233652	1083.0
4.8333	491.867621932	1132.0
4.8435	492.109505951	1133.0
4.8538	492.352735732	1058.0
4.864	492.592592623	1126.0
4.8742	492.831447234	1110.0
4.8845	493.071630752	1094.0
4.8947	493.308483625	1092.0
4.905	493.546654267	1116.0
4.9152	493.781522177	1101.0
4.9254	494.015408653	1073.0
4.9357	494.250596394	1136.0
4.9459	494.482522768	1072.0
4.9562	494.715739501	1148.0
4.9664	494.945722198	1108.0
4.9766	495.174743875	1091.0
4.9869	495.405039753	1117.0
4.9971	495.632142097	1185.0
5.0074	495.860507962	1149.0
5.0176	496.085707058	1121.0
5.0278	496.309965124	1126.0
5.0381	496.535470886	1146.0
5.0483	496.75784954	1153.0
5.0586	496.981465435	1120.0
5.0688	497.201980428	1139.0
5.079	497.421573964	1143.0
5.0893	497.642389245	1128.0
5.0995	497.860142461	1157.0
5.1098	498.079107183	1151.0
5.12	498.295035502	1060.0
5.1302	498.51006153	1098.0
5.1405	498.726283891	1186.0
5.1507	498.939507877	1176.0
5.161	499.15391817	1130.0
5.1712	499.365355217	1075.0
5.1814	499.575908741	1131.0
5.1917	499.787633713	1063.0
5.2019	499.996422677	1144.0
5.2122	500.206373273	1138.0
5.2224	500.413412465	1077.0
5.2326	500.619586511	1144.0
5.2429	500.82690764	1084.0
5.2531	501.03135383	1072.0
5.2634	501.236937489	1098.0
5.2736	501.439670302	1004.0
5.2838	501.641555962	1091.0
5.2941	501.844564848	1042.0
5.3043	502.044758591	1041.0
5.3146	502.246066145	1048.0
5.3248	502.44458215	1039.0
5.335	502.642268624	1033.0
5.3453	502.841054959	1009.0
5.3555	503.037084706	1003.0
5.3658	503.234205098	997.0
5.376	503.428592004	978.0
5.3862	503.622166632	985.0
5.3965	503.816818245	991.0
5.4067	504.008770608	898.0
5.417	504.201790929	886.0
5.4272	504.39213462	904.0
5.4374	504.58168293	914.0
5.4477	504.772285823	855.0
5.4579	504.960245609	916.0
5.4682	505.14925114	830.0
5.4784	505.335635715	813.0
5.4886	505.521241452	828.0
5.4989	505.707879837	800.0
5.5091	505.891930092	811.0
5.5194	506.07700434	771.0
5.5296	506.259512148	779.0
5.5398	506.441257317	755.0
5.5501	506.624013656	778.0
5.5603	506.804235697	747.0
5.5706	506.985460433	758.0
5.5808	507.164172109	704.0
5.591	507.34213701	679.0
5.6013	507.521092048	668.0
5.6115	507.697565501	667.0
5.6218	507.875020793	704.0
5.632	508.050015298	695.0
5.6422	508.224278559	586.0
5.6525	508.399511363	648.0
5.6627	508.572314198	517.0
5.673	508.74607845	562.0
5.6832	508.917433099	563.0
5.6934	509.088071714	543.0
5.7037	509.259659706	517.0
5.7139	509.428868271	482.0
5.7242	509.599018257	457.0
5.7344	509.766808758	507.0
5.7446	509.933898119	466.0
5.7549	510.10191711	474.0
5.7651	510.267606166	476.0
5.7754	510.434217061	426.0
5.7856	510.598517549	405.0
5.7958	510.76213148	422.0
5.8061	510.926655704	400.0
5.8163	511.088898456	389.0
5.8266	511.252043873	383.0
5.8368	511.412926938	364.0
5.847	511.573137727	322.0
5.8573	511.734239876	356.0
5.8675	511.893108007	324.0
5.8778	512.052860027	313.0
5.888	512.210396752	321.0
5.8982	512.367275184	303.0
5.9085	512.525026435	294.0
5.9187	512.680590136	244.0
5.929	512.837019341	263.0
5.9392	512.991279329	259.0
5.9494	513.144894717	217.0
5.9597	513.299364769	221.0
5.9699	513.451692771	232.0
5.9802	513.604868276	222.0
5.9904	513.755919682	216.0
6.0006	513.906339896	211.0
6.0109	514.057596998	163.0
6.0211	514.206756604	222.0
6.0314	514.356746084	192.0
6.0416	514.504655647	180.0
6.0518	514.651947146	184.0
6.0621	514.800058125	142.0
6.0723	514.946115237	171.0
6.0826	515.092984962	167.0
6.0928	515.237818031	158.0
6.103	515.382045892	135.0
6.1133	515.527076189	128.0
6.1235	515.670095337	127.0
6.1338	515.813910197	128.0
6.144	515.955730763	127.0
6.1542	516.096958709	105.0
6.1645	516.2389724	106.0
6.1747	516.379016775	101.0
6.185	516.51984031	99.0
6.1952	516.658711033	98.0
6.2054	516.797001462	107.0
6.2157	516.936061292	73.0
6.2259	517.073192768	94.0
6.2362	517.211087197	62.0
6.2464	517.347069433	81.0
6.2566	517.482483444	87.0
6.2669	517.618650854	69.0
6.2771	517.752930019	66.0
6.2874	517.887956268	77.0
6.2976	518.021110096	57.0
6.3078	518.153707519	61.0
6.3181	518.28704267	59.0
6.3283	518.418528851	54.0
6.3386	518.550746577	64.0
6.3488	518.681130828	50.0
6.359	518.810970247	45.0
6.3693	518.94153205	49.0
6.3795	519.070283341	49.0
6.3898	519.19975096	44.0
6.4	519.327423242	53.0
6.4102	519.454562023	40.0
6.4205	519.582408163	44.0
6.4307	519.708481449	32.0
6.441	519.835256164	48.0
6.4512	519.960272883	52.0
6.4614	520.0847672	19.0
6.4717	520.209954162	34.0
6.4819	520.333405145	26.0
6.4922	520.457542968	41.0
6.5024	520.579959361	19.0
6.5126	520.701864217	34.0
6.5229	520.824447311	39.0
6.5331	520.945330535	28.0
6.5434	521.066886312	34.0
6.5536	521.186756465	24.0
6.5638	521.306125721	25.0
6.5741	521.426159108	24.0
6.5843	521.544527981	23.0
6.5946	521.663555419	28.0
6.6048	521.780932294	20.0
6.615	521.897818689	33.0
6.6253	522.015355402	26.0
6.6355	522.131262223	23.0
6.6458	522.247813911	23.0
6.656	522.362749366	19.0
6.6662	522.477204545	23.0
6.6765	522.592296514	21.0
6.6867	522.705792493	29.0
6.697	522.819919925	20.0
6.7072	522.932464743	17.0
6.7174	523.044539274	16.0
6.7277	523.157237349	10.0
6.7379	523.268372631	11.0
6.7482	523.380126233	21.0
6.7584	523.490330137	10.0
6.7686	523.600073537	15.0
6.7789	523.710427512	16.0
6.7891	523.819251199	13.0
6.7994	523.928680344	16.0
6.8096	524.036592026	8.0
6.8198	524.144052782	11.0
6.8301	524.252111413	17.0
6.8403	524.358671586	13.0
6.8506	524.465824624	9.0
6.8608	524.571491762	13.0
6.871	524.676717352	14.0
6.8813	524.782528382	10.0
6.8915	524.886872122	7.0
6.9018	524.991796395	12.0
6.912	525.095265674	14.0
6.9222	525.19830259	8.0
6.9325	525.301912769	10.0
6.9427	525.404086176	17.0
6.953	525.506828042	13.0
6.9632	525.608145178	13.0
6.9734	525.709038944	15.0
6.9837	525.810494048	13.0
6.9939	525.910542267	13.0
7.0042	526.011147119	14.0
7.0144	526.110356876	13.0
7.0246	526.209152069	8.0
7.0349	526.308496925	7.0
7.0451	526.406464157	9.0
7.0554	526.504976446	7.0
7.0656	526.602122657	8.0
7.0758	526.698862926	11.0
7.0861	526.796141426	11.0
7.0963	526.892070956	11.0
7.1066	526.988534207	6.0
7.1168	527.083659793	10.0
7.127	527.178387881	6.0
7.1373	527.273643005	9.0
7.1475	527.367577218	7.0
7.1578	527.462034049	9.0
7.168	527.555181039	5.0
7.1782	527.647938799	11.0
7.1885	527.741212633	6.0
7.1987	527.83319303	10.0
7.209	527.925685175	5.0
7.2192	528.016894724	10.0
7.2294	528.107723138	7.0
7.2397	528.199056892	6.0
7.2499	528.289124112	11.0
7.2602	528.379692437	7.0
7.2704	528.469004842	8.0
7.2806	528.557944042	6.0
7.2909	528.647378069	4.0
7.3011	528.735571907	10.0
7.3114	528.824256425	5.0
7.3216	528.911711148	8.0
7.3318	528.998800427	4.0
7.3421	529.086374242	11.0
7.3523	529.172733663	6.0
7.3626	529.259573559	5.0
7.3728	529.345209238	7.0
7.383	529.430487075	9.0
7.3933	529.516239369	7.0
7.4035	529.600802529	5.0
7.4138	529.68583617	9.0
7.424	529.769690642	10.0
7.4342	529.853194714	6.0
7.4445	529.937163376	13.0
7.4547	530.019967636	6.0
7.465	530.103232592	14.0
7.4752	530.185342905	5.0
7.4854	530.267110107	9.0
7.4957	530.349332234	7.0
7.5059	530.43041418	4.0
7.5162	530.511947239	10.0
7.5264	530.592349672	3.0
7.5366	530.67241613	6.0
7.5469	530.752928051	4.0
7.5571	530.832323507	6.0
7.5674	530.912160692	4.0
7.5776	530.990890768	5.0
7.5878	531.069291857	7.0
7.5981	531.148129144	5.0
7.6083	531.225873188	8.0
7.6186	531.304049773	7.0
7.6288	531.381142277	7.0
7.639	531.457912637	4.0
7.6493	531.535110122	6.0
7.6595	531.611237102	8.0
7.6698	531.687787628	9.0
7.68	531.763276621	7.0
