TL-DOS Lehrstuhlversuch
detector=R1407203
job_number=2015-10-27-008
irradiation_dose [mSv]=0.4

[BEGIN DATA]
time [sec] 	 temperature [K] 	 photoncount 
0.0	241.70394889	0.0
0.0102	242.492024867	0.0
0.0205	243.285984041	1.0
0.0307	244.070413948	0.0
0.041	244.860699833	1.0
0.0512	245.641500539	1.0
0.0614	246.420501757	0.0
0.0717	247.205318426	0.0
0.0819	247.980715558	3.0
0.0922	248.761901236	0.0
0.1024	249.533710958	0.0
0.1126	250.303741913	0.0
0.1229	251.079521354	1.0
0.1331	251.845989725	1.0
0.1434	252.618179986	2.0
0.1536	253.381102256	1.0
0.1638	254.142266242	1.0
0.1741	254.909112518	2.0
0.1843	255.666754944	2.0
0.1946	256.430053371	0.0
0.2048	257.184190528	0.0
0.215	257.936589648	0.0
0.2253	258.694605627	1.0
0.2355	259.443523738	0.0
0.2458	260.198032721	0.0
0.256	260.943485928	0.0
0.2662	261.68722111	0.0
0.2765	262.436508473	0.0
0.2867	263.17680273	0.0
0.297	263.922623481	1.0
0.3072	264.659492733	0.0
0.3174	265.394663743	0.0
0.3277	266.135323001	0.0
0.3379	266.867092709	0.0
0.3482	267.604325273	0.0
0.3584	268.332709415	0.0
0.3686	269.059414871	0.0
0.3789	269.791545377	0.0
0.3891	270.514888697	0.0
0.3994	271.243631968	0.0
0.4096	271.963628707	0.0
0.4198	272.68196609	0.0
0.4301	273.405666053	1.0
0.4403	274.120680016	0.0
0.4506	274.841031748	1.0
0.4608	275.552737665	0.0
0.471	276.262803335	0.0
0.4813	276.978169834	0.0
0.4915	277.684950352	0.0
0.5018	278.397007175	0.0
0.512	279.100517741	0.0
0.5222	279.802406946	0.0
0.5325	280.509535941	0.0
0.5427	281.208177824	0.0
0.553	281.912035254	0.0
0.5632	282.607444838	0.0
0.5734	283.301251732	0.0
0.5837	284.000238079	0.0
0.5939	284.690835043	0.0
0.6042	285.386587497	0.0
0.6144	286.073989383	1.0
0.6246	286.759807034	2.0
0.6349	287.450744495	0.0
0.6451	288.133389179	0.0
0.6554	288.821129987	0.0
0.6656	289.500616383	0.0
0.6758	290.178536788	0.0
0.6861	290.861518048	0.0
0.6963	291.536302022	0.0
0.7066	292.216123438	0.0
0.7168	292.887785494	0.0
0.727	293.557899589	0.0
0.7373	294.233016264	0.0
0.7475	294.900030046	0.0
0.7578	295.572023262	0.0
0.768	296.235951074	0.0
0.7782	296.898348751	1.0
0.7885	297.565691402	1.0
0.7987	298.225024466	0.0
0.809	298.889279625	0.0
0.8192	299.545562254	0.0
0.8294	300.200332367	0.0
0.8397	300.859990513	0.0
0.8499	301.511731302	0.0
0.8602	302.16833751	0.0
0.8704	302.81706299	0.0
0.8806	303.464293372	0.0
0.8909	304.1163555	0.0
0.9011	304.760591441	0.0
0.9114	305.409636774	0.0
0.9216	306.050892127	1.0
0.9318	306.690669598	0.0
0.9421	307.335223178	0.0
0.9523	307.972040689	0.0
0.9626	308.613612212	1.0
0.9728	309.247483457	0.0
0.983	309.879893838	0.0
0.9933	310.517025331	1.0
1.0035	311.146509836	0.0
1.0138	311.780693611	1.0
1.024	312.407265777	0.0
1.0342	313.0323939	0.0
1.0445	313.662188772	0.0
1.0547	314.284424711	0.0
1.065	314.911305808	1.0
1.0752	315.530662944	0.0
1.0854	316.148592666	1.0
1.0957	316.771135398	0.0
1.1059	317.38620624	0.0
1.1162	318.005868749	0.0
1.1264	318.618093937	0.0
1.1366	319.228908148	0.0
1.1469	319.844282249	0.0
1.1571	320.4522705	1.0
1.1674	321.064797545	0.0
1.1776	321.66997291	0.0
1.1878	322.273753545	0.0
1.1981	322.882041563	0.0
1.2083	323.483028779	1.0
1.2186	324.088502525	0.0
1.2288	324.686709246	1.0
1.239	325.283537298	0.0
1.2493	325.88482083	0.0
1.2595	326.478887629	0.0
1.2698	327.077389295	0.0
1.28	327.668707616	0.0
1.2902	328.258663144	1.0
1.3005	328.853022847	0.0
1.3107	329.440248918	0.0
1.321	330.031858789	0.0
1.3312	330.616368032	0.0
1.3414	331.199530173	0.0
1.3517	331.787045775	1.0
1.3619	332.367509891	1.0
1.3722	332.952307325	0.0
1.3824	333.530085896	1.0
1.3926	334.106532878	0.0
1.4029	334.687283189	1.0
1.4131	335.261063213	0.0
1.4234	335.839126656	0.0
1.4336	336.41025206	0.0
1.4438	336.980061208	0.0
1.4541	337.554124132	1.0
1.4643	338.121297032	2.0
1.4746	338.692704028	0.0
1.4848	339.257252875	0.0
1.495	339.820500624	0.0
1.5053	340.387953167	1.0
1.5155	340.948595024	0.0
1.5258	341.513422222	0.0
1.536	342.071470243	1.0
1.5462	342.628232148	0.0
1.5565	343.189150428	1.0
1.5667	343.743336449	1.0
1.577	344.301659615	0.0
1.5872	344.853281668	1.0
1.5974	345.403632414	1.0
1.6077	345.958091674	1.0
1.6179	346.505896197	0.0
1.6282	347.057790226	0.0
1.6384	347.603060306	0.0
1.6486	348.147073718	0.0
1.6589	348.695148335	0.0
1.6691	349.236644843	0.0
1.6794	349.782183768	0.0
1.6896	350.321175018	0.0
1.6998	350.858924071	1.0
1.7101	351.400687564	0.0
1.7203	351.935948696	0.0
1.7306	352.475205695	1.0
1.7408	353.007990417	0.0
1.751	353.539547245	0.0
1.7613	354.075072287	2.0
1.7715	354.604169843	0.0
1.7818	355.137217254	1.0
1.792	355.663866916	3.0
1.8022	356.189302824	1.0
1.8125	356.718661251	0.0
1.8227	357.241666206	3.0
1.833	357.768575532	0.0
1.8432	358.28916078	2.0
1.8534	358.808546251	1.0
1.8637	359.331809072	0.0
1.8739	359.848791582	0.0
1.8842	360.369633504	3.0
1.8944	360.884224171	3.0
1.9046	361.397628875	4.0
1.9149	361.914866282	3.0
1.9251	362.425895696	4.0
1.9354	362.940740081	2.0
1.9456	363.449405194	3.0
1.9558	363.956898001	5.0
1.9661	364.468179377	4.0
1.9763	364.973324245	3.0
1.9866	365.482240155	3.0
1.9968	365.985047947	4.0
2.007	366.486696933	2.0
2.0173	366.992090862	3.0
2.0275	367.491418946	4.0
2.0378	367.994474647	5.0
2.048	368.491492567	7.0
2.0582	368.987365024	5.0
2.0685	369.4869393	3.0
2.0787	369.980517581	4.0
2.089	370.477780554	5.0
2.0992	370.969075271	4.0
2.1094	371.459237716	6.0
2.1197	371.953059354	5.0
2.1299	372.44095404	5.0
2.1402	372.93249099	7.0
2.1504	373.418128408	4.0
2.1606	373.902646593	9.0
2.1709	374.390781834	9.0
2.1811	374.873058373	6.0
2.1914	375.358935234	6.0
2.2016	375.838980498	5.0
2.2118	376.317919416	15.0
2.2221	376.80043374	6.0
2.2323	377.277156825	8.0
2.2426	377.757438774	9.0
2.2528	378.231956278	12.0
2.263	378.705380175	9.0
2.2733	379.182338307	8.0
2.2835	379.653571886	14.0
2.2938	380.12832335	12.0
2.304	380.597376745	12.0
2.3142	381.065349127	13.0
2.3245	381.536815048	16.0
2.3347	382.002622334	9.0
2.345	382.471906995	10.0
2.3552	382.935559203	13.0
2.3654	383.398142845	15.0
2.3757	383.864179796	18.0
2.3859	384.324623273	18.0
2.3962	384.788504083	16.0
2.4064	385.246817298	21.0
2.4166	385.704074251	19.0
2.4269	386.164744749	18.0
2.4371	386.619886182	30.0
2.4474	387.078425366	18.0
2.4576	387.531461066	23.0
2.4678	387.983452669	30.0
2.4781	388.438818508	27.0
2.4883	388.88871895	28.0
2.4986	389.341978018	34.0
2.5088	389.789796975	29.0
2.519	390.236583857	33.0
2.5293	390.686706122	38.0
2.5395	391.131425923	36.0
2.5498	391.579465676	25.0
2.56	392.022127961	30.0
2.5702	392.463770055	45.0
2.5805	392.908709125	33.0
2.5907	393.348307942	40.0
2.601	393.791188481	42.0
2.6112	394.228753473	44.0
2.6214	394.665310022	42.0
2.6317	395.105125582	34.0
2.6419	395.539662383	53.0
2.6522	395.977443116	52.0
2.6624	396.409969512	44.0
2.6726	396.841499077	54.0
2.6829	397.276250124	42.0
2.6931	397.705783198	59.0
2.7034	398.13852285	45.0
2.7136	398.566068669	59.0
2.7238	398.992629135	52.0
2.7341	399.422373989	58.0
2.7443	399.846960954	54.0
2.7546	400.274717574	63.0
2.7648	400.697340168	47.0
2.775	401.118988756	52.0
2.7853	401.543785062	78.0
2.7955	401.963482874	65.0
2.8058	402.386313841	55.0
2.816	402.804069901	54.0
2.8262	403.220863171	63.0
2.8365	403.640767913	79.0
2.8467	404.05563287	65.0
2.857	404.473594904	54.0
2.8672	404.886540469	82.0
2.8774	405.29853433	65.0
2.8877	405.713603835	75.0
2.8979	406.123691588	59.0
2.9082	406.536840755	58.0
2.9184	406.945031218	60.0
2.9286	407.352280936	60.0
2.9389	407.762570882	55.0
2.9491	408.16793644	70.0
2.9594	408.576328161	63.0
2.9696	408.979818277	66.0
2.9798	409.382378481	64.0
2.9901	409.787943905	55.0
3.0003	410.188641646	57.0
3.0106	410.592330702	63.0
3.0208	410.991174597	70.0
3.031	411.389099287	52.0
3.0413	411.789994592	36.0
3.0515	412.186078265	67.0
3.0618	412.585118809	54.0
3.072	412.979369984	52.0
3.0822	413.372712539	60.0
3.0925	413.768991501	53.0
3.1027	414.160514239	55.0
3.113	414.554959798	62.0
3.1232	414.944671138	40.0
3.1334	415.333484322	39.0
3.1437	415.725200099	38.0
3.1539	416.112214421	41.0
3.1642	416.502117907	45.0
3.1744	416.887341689	34.0
3.1846	417.271677657	37.0
3.1949	417.658882795	43.0
3.2051	418.041440615	45.0
3.2154	418.426854331	30.0
3.2256	418.807642229	29.0
3.2358	419.187552537	37.0
3.2461	419.570298976	27.0
3.2563	419.948451612	26.0
3.2666	420.329427257	27.0
3.2768	420.705830352	31.0
3.287	421.081365961	35.0
3.2973	421.459705044	28.0
3.3075	421.833503221	33.0
3.3178	422.2100919	34.0
3.328	422.582160682	33.0
3.3382	422.953371969	32.0
3.3485	423.327354446	27.0
3.3587	423.696848306	30.0
3.369	424.069100536	29.0
3.3792	424.436884916	39.0
3.3894	424.803821674	34.0
3.3997	425.173497712	33.0
3.4099	425.53873682	46.0
3.4202	425.906702535	38.0
3.4304	426.270251848	32.0
3.4406	426.632963299	30.0
3.4509	426.998382488	34.0
3.4611	427.359415837	41.0
3.4714	427.723144397	38.0
3.4816	428.08250741	39.0
3.4918	428.441042209	54.0
3.5021	428.802253565	29.0
3.5123	429.159129587	30.0
3.5226	429.518669782	39.0
3.5328	429.8738947	38.0
3.543	430.228300942	44.0
3.5533	430.58535292	42.0
3.5635	430.938119485	35.0
3.5738	431.293519546	54.0
3.584	431.64465402	42.0
3.5942	431.994979244	40.0
3.6045	432.34791974	58.0
3.6147	432.696624169	46.0
3.625	433.047931769	48.0
3.6352	433.3950229	53.0
3.6454	433.741314102	57.0
3.6557	434.090190458	39.0
3.6659	434.434879527	53.0
3.6762	434.782141791	61.0
3.6864	435.12523614	59.0
3.6966	435.46753977	51.0
3.7069	435.812398787	55.0
3.7171	436.153118733	58.0
3.7274	436.496382244	58.0
3.7376	436.835525833	58.0
3.7478	437.173887808	64.0
3.7581	437.514775746	68.0
3.7683	437.851572273	66.0
3.7786	438.190883077	55.0
3.7888	438.5261214	61.0
3.799	438.860587109	53.0
3.8093	439.197549694	66.0
3.8195	439.530467982	61.0
3.8298	439.865871594	71.0
3.84	440.197249621	63.0
3.8502	440.52786393	58.0
3.8605	440.860946363	57.0
3.8707	441.19003107	63.0
3.881	441.521572482	64.0
3.8912	441.849134663	59.0
3.9014	442.175941922	61.0
3.9117	442.505188883	63.0
3.9219	442.830484153	59.0
3.9322	443.158207838	67.0
3.9424	443.481998114	55.0
3.9526	443.80504216	60.0
3.9629	444.130497816	51.0
3.9731	444.452047284	66.0
3.9834	444.775997204	46.0
3.9936	445.096059008	68.0
4.0038	445.415383176	63.0
4.0141	445.737091183	50.0
4.0243	446.054937983	52.0
4.0346	446.375157593	52.0
4.0448	446.69153386	62.0
4.055	447.007180983	67.0
4.0653	447.325184497	60.0
4.0755	447.639371264	62.0
4.0858	447.955903519	51.0
4.096	448.268636687	55.0
4.1062	448.580649109	56.0
4.1165	448.894990785	56.0
4.1267	449.205559667	56.0
4.137	449.518447027	50.0
4.1472	449.827579047	54.0
4.1574	450.13599862	53.0
4.1677	450.446720626	57.0
4.1779	450.753713281	68.0
4.1882	451.062997718	54.0
4.1984	451.368570058	46.0
4.2086	451.673438154	55.0
4.2189	451.980582171	58.0
4.2291	452.28403978	60.0
4.2394	452.589762782	56.0
4.2496	452.891816431	46.0
4.2598	453.193173946	43.0
4.2701	453.496781174	45.0
4.2803	453.796744445	46.0
4.2906	454.098947021	52.0
4.3008	454.397522497	48.0
4.311	454.695409855	44.0
4.3213	454.995521022	55.0
4.3315	455.292030191	40.0
4.3418	455.590752879	33.0
4.352	455.885890235	42.0
4.3622	456.180347396	43.0
4.3725	456.477002758	50.0
4.3827	456.770097599	48.0
4.393	457.065380472	39.0
4.4032	457.357119296	54.0
4.4134	457.648185759	44.0
4.4237	457.94142511	40.0
4.4339	458.231144941	48.0
4.4442	458.523027606	46.0
4.4544	458.811407035	47.0
4.4646	459.099121843	41.0
4.4749	459.388984519	60.0
4.4851	459.675368202	34.0
4.4954	459.963889815	55.0
4.5056	460.248948531	44.0
4.5158	460.53335028	43.0
4.5261	460.819875163	53.0
4.5363	461.102961114	46.0
4.5466	461.388160378	44.0
4.5568	461.669936619	50.0
4.567	461.951063458	38.0
4.5773	462.234288984	54.0
4.5875	462.514115178	52.0
4.5978	462.796030348	53.0
4.608	463.074561912	56.0
4.6182	463.352451553	38.0
4.6285	463.632415714	49.0
4.6387	463.909019686	34.0
4.649	464.18768858	46.0
4.6592	464.463012831	50.0
4.6694	464.73770255	53.0
4.6797	465.014442901	44.0
4.6899	465.287861755	41.0
4.7002	465.563321754	41.0
4.7104	465.835475624	41.0
4.7206	466.107002268	53.0
4.7309	466.380555931	48.0
4.7411	466.650826345	52.0
4.7514	466.923114399	45.0
4.7616	467.192134395	46.0
4.7718	467.460534388	45.0
4.7821	467.730938058	42.0
4.7923	467.998096286	41.0
4.8026	468.267248921	46.0
4.8128	468.533171129	41.0
4.823	468.798480474	32.0
4.8333	469.065770424	44.0
4.8435	469.329852303	41.0
4.8538	469.595905624	48.0
4.864	469.858765716	54.0
4.8742	470.121020002	47.0
4.8845	470.385232086	49.0
4.8947	470.646273041	38.0
4.905	470.909262735	48.0
4.9152	471.169095972	46.0
4.9254	471.428330379	45.0
4.9357	471.689500039	45.0
4.9459	471.947535086	46.0
4.9562	472.207496433	37.0
4.9664	472.464337668	43.0
4.9766	472.72058697	51.0
4.9869	472.97874924	32.0
4.9971	473.233812992	34.0
5.0074	473.490780863	37.0
5.0176	473.74466455	34.0
5.0278	473.99796312	47.0
5.0381	474.253152631	39.0
5.0483	474.505279303	44.0
5.0586	474.759288167	54.0
5.0688	475.010248364	48.0
5.079	475.26063018	25.0
5.0893	475.512881162	42.0
5.0995	475.762104575	32.0
5.1098	476.013188507	39.0
5.12	476.261258876	44.0
5.1302	476.508757524	39.0
5.1405	476.758103816	36.0
5.1507	477.004457401	39.0
5.161	477.252650081	51.0
5.1712	477.497863899	36.0
5.1814	477.742512581	31.0
5.1917	477.98898763	39.0
5.2019	478.232504433	36.0
5.2122	478.477839153	45.0
5.2224	478.720229315	41.0
5.2326	478.962060847	38.0
5.2429	479.205697715	34.0
5.2531	479.446410402	44.0
5.2634	479.688920074	26.0
5.2736	479.928519093	39.0
5.2838	480.167565915	46.0
5.2941	480.408397285	38.0
5.3043	480.646338145	28.0
5.3146	480.886055298	37.0
5.3248	481.122895315	54.0
5.335	481.359189493	52.0
5.3453	481.59724767	42.0
5.3555	481.832448622	55.0
5.3658	482.069405412	27.0
5.376	482.303518197	38.0
5.3862	482.537091428	35.0
5.3965	482.772408346	38.0
5.4067	483.00490094	41.0
5.417	483.239129153	47.0
5.4272	483.470546109	42.0
5.4374	483.701429726	41.0
5.4477	483.93403695	32.0
5.4579	484.163852373	38.0
5.4682	484.395383429	38.0
5.4784	484.6241356	38.0
5.4886	484.852360573	32.0
5.4989	485.082289306	34.0
5.5091	485.309458386	39.0
5.5194	485.538323343	41.0
5.5296	485.764441414	32.0
5.5398	485.990038357	40.0
5.5501	486.217319442	39.0
5.5603	486.441872651	29.0
5.5706	486.668102209	30.0
5.5808	486.891616513	39.0
5.591	487.114615689	41.0
5.6013	487.339279613	43.0
5.6115	487.561247074	43.0
5.6218	487.78487158	49.0
5.632	488.005812098	34.0
5.6422	488.22624342	43.0
5.6525	488.448320321	38.0
5.6627	488.667731808	33.0
5.673	488.88878126	29.0
5.6832	489.10717763	39.0
5.6934	489.325070667	40.0
5.7037	489.544590335	35.0
5.7139	489.76147528	38.0
5.7242	489.97997933	43.0
5.7344	490.195860847	37.0
5.7446	490.411244829	33.0
5.7549	490.628236709	29.0
5.7651	490.842624207	26.0
5.7754	491.058612164	29.0
5.7856	491.272007788	35.0
5.7958	491.484911606	35.0
5.8061	491.699404807	31.0
5.8163	491.911323615	47.0
5.8266	492.124824453	48.0
5.8368	492.335762809	42.0
5.847	492.546215022	33.0
5.8573	492.758238316	36.0
5.8675	492.967716862	31.0
5.8778	493.178759221	37.0
5.888	493.387268604	38.0
5.8982	493.595297443	43.0
5.9085	493.804879271	31.0
5.9187	494.011945654	34.0
5.929	494.220557843	39.0
5.9392	494.426666224	31.0
5.9494	494.632299593	32.0
5.9597	494.83946807	39.0
5.9699	495.044150067	26.0
5.9802	495.250360069	30.0
5.9904	495.454095095	47.0
6.0006	495.657360579	44.0
6.0109	495.862143494	41.0
6.0211	496.064468561	32.0
6.0314	496.268304038	33.0
6.0416	496.469693038	29.0
6.0518	496.670617904	43.0
6.0621	496.873042726	50.0
6.0723	497.073038004	39.0
6.0826	497.274526299	33.0
6.0928	497.473596288	53.0
6.103	497.672207487	35.0
6.1133	497.872301372	40.0
6.1235	498.069993687	38.0
6.1338	498.269161828	23.0
6.144	498.46593951	36.0
6.1542	498.662263685	44.0
6.1645	498.860053472	26.0
6.1747	499.055469344	36.0
6.185	499.252344047	31.0
6.1952	499.446855818	41.0
6.2054	499.640919304	34.0
6.2157	499.836431526	33.0
6.2259	500.029597168	48.0
6.2362	500.224204843	28.0
6.2464	500.416476795	32.0
6.2566	500.608305624	42.0
6.2669	500.801566506	31.0
6.2771	500.99250783	28.0
6.2874	501.184874582	38.0
6.2976	501.374932507	31.0
6.3078	501.564552411	36.0
6.3181	501.755587879	26.0
6.3283	501.944330498	43.0
6.3386	502.134482131	35.0
6.3488	502.322351523	35.0
6.359	502.509787939	32.0
6.3693	502.698623617	26.0
6.3795	502.885192849	40.0
6.3898	503.07315487	31.0
6.4	503.258860931	30.0
6.4102	503.444139001	33.0
6.4205	503.630800221	35.0
6.4307	503.815221094	31.0
6.441	504.001018717	26.0
6.4512	504.184586357	29.0
6.4614	504.367730935	24.0
6.4717	504.552242736	30.0
6.4819	504.734539987	24.0
6.4922	504.918198135	23.0
6.5024	505.099651979	25.0
6.5126	505.280687632	20.0
6.5229	505.463074764	27.0
6.5331	505.643272847	22.0
6.5434	505.824816157	26.0
6.5536	506.004180545	17.0
6.5638	506.183131558	22.0
6.5741	506.363418487	30.0
6.5843	506.541541575	29.0
6.5946	506.720994399	26.0
6.6048	506.898293391	15.0
6.615	507.075183768	13.0
6.6253	507.253394679	27.0
6.6355	507.429466664	25.0
6.6458	507.606853074	21.0
6.656	507.782110454	28.0
6.6662	507.956963924	28.0
6.6765	508.133122722	24.0
6.6867	508.307167224	19.0
6.697	508.482511015	19.0
6.7072	508.655750292	20.0
6.7174	508.82859031	18.0
6.7277	509.002720624	16.0
6.7379	509.17476099	24.0
6.7482	509.348085682	15.0
6.7584	509.519330095	26.0
6.7686	509.690179846	20.0
6.7789	509.862305035	18.0
6.7891	510.032364342	25.0
6.7994	510.203693187	12.0
6.8096	510.372965706	18.0
6.8198	510.541848108	21.0
6.8301	510.711991262	20.0
6.8403	510.880092322	21.0
6.8506	511.049448301	11.0
6.8608	511.216771633	13.0
6.871	511.38370934	14.0
6.8813	511.551893282	12.0
6.8915	511.718058644	10.0
6.9018	511.885464475	8.0
6.912	512.050861066	18.0
6.9222	512.215876472	13.0
6.9325	512.382123761	16.0
6.9427	512.546375716	14.0
6.953	512.711853855	16.0
6.9632	512.87534589	11.0
6.9734	513.03846113	5.0
6.9837	513.202794069	11.0
6.9939	513.365154649	10.0
7.0042	513.528727294	15.0
7.0144	513.690336705	16.0
7.0246	513.851573659	12.0
7.0349	514.014014291	14.0
7.0451	514.174505275	10.0
7.0554	514.336194368	9.0
7.0656	514.495942833	20.0
7.0758	514.655323131	11.0
7.0861	514.815893245	11.0
7.0963	514.974536163	7.0
7.1066	515.134363392	9.0
7.1168	515.292272341	14.0
7.127	515.449817362	9.0
7.1373	515.608538498	4.0
7.1475	515.76535463	9.0
7.1578	515.923341435	11.0
7.168	516.079432049	11.0
7.1782	516.235162926	10.0
7.1885	516.392056376	4.0
7.1987	516.547066757	4.0
7.209	516.703234331	5.0
7.2192	516.857527549	9.0
7.2294	517.011465173	7.0
7.2397	517.166551981	7.0
7.2499	517.319777405	7.0
7.2602	517.474146697	6.0
7.2704	517.626663216	1.0
7.2806	517.778828235	6.0
7.2909	517.932129206	10.0
7.3011	518.083590226	2.0
7.3114	518.236181944	7.0
7.3216	518.386942222	7.0
7.3318	518.537355049	4.0
7.3421	518.688890747	11.0
7.3523	518.838607681	2.0
7.3626	518.989442292	5.0
7.3728	519.138466554	4.0
7.383	519.287147364	5.0
7.3933	519.436938116	2.0
7.4035	519.584931048	10.0
7.4138	519.734028786	4.0
7.424	519.881337021	4.0
7.4342	520.02830576	4.0
7.4445	520.176371659	5.0
7.4547	520.32266044	4.0
7.465	520.470041305	2.0
7.4752	520.615653274	3.0
7.4854	520.760929656	3.0
7.4957	520.907290564	3.0
7.5059	521.051894817	5.0
7.5162	521.19757858	1.0
7.5264	521.341513815	3.0
7.5366	521.485117327	1.0
7.5469	521.629792878	2.0
7.5571	521.772732002	2.0
7.5674	521.916738204	2.0
7.5776	522.059016013	4.0
7.5878	522.200965919	3.0
7.5981	522.343975518	2.0
7.6083	522.485268686	4.0
7.6186	522.627616646	5.0
7.6288	522.768256114	4.0
7.639	522.908571455	1.0
7.6493	523.049934288	2.0
7.6595	523.189600453	3.0
7.6698	523.330309264	2.0
7.68	523.469329258	2.0
7.6902	523.608028856	3.0
7.7005	523.747763884	3.0
7.7107	523.885821782	6.0
7.721	524.024910319	1.0
7.7312	524.162329486	0.0
7.7414	524.299431947	2.0
7.7517	524.437557915	5.0
7.7619	524.574026065	1.0
7.7722	524.711512986	0.0
7.7824	524.847349761	1.0
7.7926	524.982873476	2.0
7.8029	525.119408911	2.0
7.8131	525.25430562	2.0
7.8234	525.390209368	2.0
7.8336	525.52448197	2.0
7.8438	525.658445119	2.0
7.8541	525.793408338	2.0
7.8643	525.926751699	1.0
7.8746	526.061090505	2.0
7.8848	526.193816947	1.0
7.895	526.326237499	4.0
7.9053	526.459646605	4.0
7.9155	526.591454507	0.0
7.9258	526.72424639	1.0
7.936	526.855444477	2.0
7.9462	526.986340195	4.0
7.9565	527.118213085	2.0
7.9667	527.248503208	1.0
7.977	527.379765982	2.0
7.9872	527.509453312	1.0
7.9974	527.638841755	3.0
