TL-DOS Lehrstuhlversuch
detector=R1407605
job_number=2015-11-05-005
irradiation_dose [mSv]=0.06

[BEGIN DATA]
time [sec] 	 temperature [K] 	 photoncount 
0.0	208.997207947	0.0
0.0102	210.160637817	0.0
0.0205	211.331782793	1.0
0.0307	212.487913661	2.0
0.041	213.651711233	0.0
0.0512	214.800588892	2.0
0.0614	215.945874608	0.0
0.0717	217.09875511	0.0
0.0819	218.236855656	1.0
0.0922	219.38250334	3.0
0.1024	220.513463793	2.0
0.1126	221.640888321	1.0
0.1229	222.775789191	1.0
0.1331	223.896140604	2.0
0.1434	225.023921456	0.0
0.1536	226.137244128	2.0
0.1638	227.24708602	1.0
0.1741	228.364287658	0.0
0.1843	229.467166744	0.0
0.1946	230.577359402	2.0
0.2048	231.673319363	1.0
0.215	232.765852827	1.0
0.2253	233.86563126	3.0
0.2355	234.951310505	1.0
0.2458	236.044189266	0.0
0.256	237.123057293	0.0
0.2662	238.198552262	0.0
0.2765	239.28117921	0.0
0.2867	240.349926854	1.0
0.297	241.425761734	1.0
0.3072	242.487804384	0.0
0.3174	243.546526579	1.0
0.3277	244.612269527	0.0
0.3379	245.664349625	0.0
0.3482	246.72340643	0.0
0.3584	247.768886101	0.0
0.3686	248.8110971	0.0
0.3789	249.860219362	0.0
0.3891	250.89589185	1.0
0.3994	251.938432241	0.0
0.4096	252.967607239	0.0
0.4198	253.993564542	0.0
0.4301	255.026325323	0.0
0.4403	256.045846085	0.0
0.4506	257.072127642	0.0
0.4608	258.085252245	0.0
0.471	259.095209334	0.0
0.4813	260.111863798	0.0
0.4915	261.115484726	0.0
0.5018	262.125761013	0.0
0.512	263.123085533	0.0
0.5222	264.117291937	1.0
0.5325	265.118091269	0.0
0.5427	266.106060328	0.0
0.553	267.100580953	0.0
0.5632	268.082351798	0.0
0.5734	269.061053157	0.0
0.5837	270.046244623	0.0
0.5939	271.01880591	0.0
0.6042	271.997816588	0.0
0.6144	272.964276325	0.0
0.6246	273.927714445	0.0
0.6349	274.897541457	0.0
0.6451	275.854935263	0.0
0.6554	276.818677878	1.0
0.6656	277.77006529	2.0
0.6758	278.718478208	0.0
0.6861	279.67318038	0.0
0.6963	280.615643247	1.0
0.7066	281.564355911	1.0
0.7168	282.500906056	0.0
0.727	283.434528095	0.0
0.7373	284.374341306	0.0
0.7475	285.302106088	0.0
0.7578	286.236023199	1.0
0.768	287.157967471	0.0
0.7782	288.077029302	0.0
0.7885	289.00218575	0.0
0.7987	289.915481669	0.0
0.809	290.834833971	0.0
0.8192	291.742400153	0.0
0.8294	292.647128847	0.0
0.8397	293.557857111	0.0
0.8499	294.456909816	0.0
0.8602	295.361924451	0.0
0.8704	296.255336776	0.0
0.8806	297.145955865	1.0
0.8909	298.042480958	0.0
0.9011	298.927512577	0.0
0.9114	299.818413147	0.0
0.9216	300.69789235	0.0
0.9318	301.574621879	0.0
0.9421	302.457165305	0.0
0.9523	303.328394502	0.0
0.9626	304.205401122	0.0
0.9728	305.071164495	0.0
0.983	305.934221077	0.0
0.9933	306.803000886	0.0
1.0035	307.660642916	0.0
1.0138	308.523972267	1.0
1.024	309.376233715	1.0
1.0342	310.225830584	1.0
1.0445	311.081061425	0.0
1.0547	311.925328185	0.0
1.065	312.77519357	0.0
1.0752	313.614163661	0.0
1.0854	314.450510728	1.0
1.0957	315.292403902	1.0
1.1059	316.123503984	0.0
1.1162	316.96011538	0.0
1.1264	317.786001396	0.0
1.1366	318.609305296	2.0
1.1469	319.43806881	0.0
1.1571	320.256207555	0.0
1.1674	321.079771662	0.0
1.1776	321.892777656	1.0
1.1878	322.703241803	1.0
1.1981	323.519080419	0.0
1.2083	324.324459963	0.0
1.2186	325.135180258	1.0
1.2288	325.935507099	0.0
1.239	326.733331735	0.0
1.2493	327.536447021	1.0
1.2595	328.32926635	0.0
1.2698	329.127343139	0.0
1.28	329.915188563	0.0
1.2902	330.700570804	0.0
1.3005	331.491161187	0.0
1.3107	332.271616182	0.0
1.321	333.057246644	0.0
1.3312	333.832805304	0.0
1.3414	334.605939196	0.0
1.3517	335.384200006	0.0
1.3619	336.152483493	0.0
1.3722	336.925861735	0.0
1.3824	337.689325248	0.0
1.3926	338.450401808	0.0
1.4029	339.21652533	1.0
1.4131	339.972827129	1.0
1.4234	340.734144228	2.0
1.4336	341.485701222	1.0
1.4438	342.234908489	0.0
1.4541	342.989084009	0.0
1.4643	343.73359098	0.0
1.4746	344.483035034	0.0
1.4848	345.222871197	0.0
1.495	345.960394278	1.0
1.5053	346.702808129	0.0
1.5155	347.435704216	1.0
1.5258	348.173460391	0.0
1.536	348.901758514	0.0
1.5462	349.627779627	1.0
1.5565	350.358615238	1.0
1.5667	351.080081518	3.0
1.577	351.806332091	2.0
1.5872	352.523272114	2.0
1.5974	353.237970638	1.0
1.6077	353.957408575	1.0
1.6179	354.667623301	2.0
1.6282	355.382547706	0.0
1.6384	356.088306762	0.0
1.6486	356.791859277	0.0
1.6589	357.500077293	0.0
1.6691	358.199215936	0.0
1.6794	358.902990809	0.0
1.6896	359.597743271	1.0
1.6998	360.290323604	0.0
1.7101	360.987496677	0.0
1.7203	361.675731973	3.0
1.7306	362.368531197	3.0
1.7408	363.052448717	3.0
1.751	363.734227982	2.0
1.7613	364.420528363	1.0
1.7715	365.098030355	2.0
1.7818	365.780025097	0.0
1.792	366.453276651	2.0
1.8022	367.124423296	3.0
1.8125	367.800020548	2.0
1.8227	368.466956626	5.0
1.833	369.138315388	0.0
1.8432	369.801067315	2.0
1.8534	370.46174716	1.0
1.8637	371.126808203	1.0
1.8739	371.783343147	2.0
1.8842	372.444231801	1.0
1.8944	373.096647846	6.0
1.9046	373.747024126	0.0
1.9149	374.401713276	3.0
1.9251	375.048009295	2.0
1.9354	375.698591126	4.0
1.9456	376.340832483	4.0
1.9558	376.981065885	2.0
1.9661	377.625544896	3.0
1.9763	378.26176167	5.0
1.9866	378.902197418	3.0
1.9968	379.534422764	8.0
2.007	380.164671471	7.0
2.0173	380.799099574	6.0
2.0275	381.425394294	7.0
2.0378	382.055842191	2.0
2.048	382.67820773	8.0
2.0582	383.298627456	5.0
2.0685	383.9231614	6.0
2.0787	384.539688803	1.0
2.089	385.160304613	10.0
2.0992	385.772964114	2.0
2.1094	386.383708146	1.0
2.1197	386.998502234	8.0
2.1299	387.605414646	7.0
2.1402	388.216351705	9.0
2.1504	388.819456535	9.0
2.1606	389.42067577	8.0
2.1709	390.025881899	4.0
2.1811	390.62332927	10.0
2.1914	391.224738521	8.0
2.2016	391.818437691	11.0
2.2118	392.410280672	7.0
2.2221	393.006048369	5.0
2.2323	393.594178309	7.0
2.2426	394.186208343	14.0
2.2528	394.770648537	16.0
2.263	395.353261491	17.0
2.2733	395.939737952	19.0
2.2835	396.518695772	10.0
2.2938	397.10149286	8.0
2.304	397.676818476	8.0
2.3142	398.250345348	12.0
2.3245	398.827675475	14.0
2.3347	399.397604216	14.0
2.345	399.971312351	14.0
2.3552	400.537665534	9.0
2.3654	401.102248026	11.0
2.3757	401.670574459	15.0
2.3859	402.231614933	14.0
2.3962	402.796375861	9.0
2.4064	403.35389654	10.0
2.4166	403.909674142	18.0
2.4269	404.469137298	6.0
2.4371	405.021428122	7.0
2.4474	405.577381377	15.0
2.4576	406.126207299	12.0
2.4678	406.673317327	14.0
2.4781	407.224055431	12.0
2.4883	407.767733059	12.0
2.4986	408.315016002	14.0
2.5088	408.855282763	12.0
2.519	409.393860392	15.0
2.5293	409.936009516	10.0
2.5395	410.471208274	14.0
2.5498	411.00995612	14.0
2.56	411.541797206	13.0
2.5702	412.071975502	4.0
2.5805	412.605669593	13.0
2.5907	413.132521713	10.0
2.601	413.662867572	8.0
2.6112	414.186414383	15.0
2.6214	414.708324337	13.0
2.6317	415.233695255	6.0
2.6419	415.752330906	9.0
2.6522	416.274405809	13.0
2.6624	416.789787699	14.0
2.6726	417.303558258	7.0
2.6829	417.820735808	12.0
2.6931	418.331283129	9.0
2.7034	418.845216065	6.0
2.7136	419.352560369	7.0
2.7238	419.858318471	10.0
2.7341	420.36743043	7.0
2.7443	420.870015561	11.0
2.7546	421.375933508	11.0
2.7648	421.875365575	3.0
2.775	422.373236177	5.0
2.7853	422.874408332	12.0
2.7955	423.369155447	3.0
2.8058	423.867183402	11.0
2.816	424.358826626	9.0
2.8262	424.848932737	6.0
2.8365	425.342288912	10.0
2.8467	425.829320249	7.0
2.857	426.319581258	8.0
2.8672	426.80355711	9.0
2.8774	427.286019821	9.0
2.8877	427.771681909	8.0
2.8979	428.251117797	12.0
2.9082	428.733732991	5.0
2.9184	429.210161046	11.0
2.9286	429.685099558	13.0
2.9389	430.163187552	13.0
2.9491	430.635146446	11.0
2.9594	431.110235063	8.0
2.9696	431.579233032	10.0
2.9798	432.046764688	14.0
2.9901	432.517396709	18.0
3.0003	432.981995216	13.0
3.0106	433.449674636	11.0
3.0208	433.911358394	11.0
3.031	434.371598708	16.0
3.0413	434.834891034	13.0
3.0515	435.292243941	5.0
3.0618	435.752629714	16.0
3.072	436.20711333	10.0
3.0822	436.660176012	10.0
3.0925	437.11624311	12.0
3.1027	437.566463416	11.0
3.113	438.019669288	10.0
3.1232	438.467065051	16.0
3.1334	438.913062039	9.0
3.1437	439.362016588	6.0
3.1539	439.805215529	15.0
3.1642	440.251353475	17.0
3.1744	440.691771922	15.0
3.1846	441.130813409	10.0
3.1949	441.572766333	13.0
3.2051	442.009053409	13.0
3.2154	442.448233655	12.0
3.2256	442.8817836	14.0
3.2358	443.31397806	11.0
3.2461	443.749038551	7.0
3.2563	444.178521556	19.0
3.2666	444.610852612	14.0
3.2768	445.037641172	16.0
3.287	445.463095387	11.0
3.2973	445.891370936	12.0
3.3075	446.314155982	17.0
3.3178	446.739744662	14.0
3.328	447.159877284	15.0
3.3382	447.578696371	11.0
3.3485	448.000292791	9.0
3.3587	448.416484336	12.0
3.369	448.83543579	13.0
3.3792	449.249016276	15.0
3.3894	449.661303712	14.0
3.3997	450.076325168	19.0
3.4099	450.486026039	17.0
3.4202	450.898443778	8.0
3.4304	451.305574312	10.0
3.4406	451.71143196	6.0
3.4509	452.119980991	9.0
3.4611	452.523292413	13.0
3.4714	452.929278332	9.0
3.4816	453.330059503	11.0
3.4918	453.729587639	9.0
3.5021	454.131765184	10.0
3.5123	454.528786804	7.0
3.5226	454.928441211	8.0
3.5328	455.322972039	7.0
3.543	455.716269374	17.0
3.5533	456.1121748	10.0
3.5635	456.503004709	11.0
3.5738	456.896426346	9.0
3.584	457.284804308	7.0
3.5942	457.671968014	12.0
3.6045	458.061699137	11.0
3.6147	458.446433897	15.0
3.625	458.833719967	20.0
3.6352	459.216041019	10.0
3.6454	459.597166753	14.0
3.6557	459.980819863	10.0
3.6659	460.359554531	9.0
3.6762	460.740800719	11.0
3.6864	461.117159322	4.0
3.6966	461.492341248	10.0
3.7069	461.870011135	15.0
3.7171	462.242839284	9.0
3.7274	462.618139786	11.0
3.7376	462.988628927	5.0
3.7478	463.35795974	9.0
3.7581	463.729739714	9.0
3.7683	464.09675346	4.0
3.7786	464.466201001	11.0
3.7888	464.830912215	10.0
3.799	465.194483167	7.0
3.8093	465.560465084	9.0
3.8195	465.921755103	10.0
3.8298	466.285440962	5.0
3.84	466.644464359	15.0
3.8502	467.002365277	12.0
3.8605	467.36263956	6.0
3.8707	467.718295117	10.0
3.881	468.07630915	13.0
3.8912	468.429733434	12.0
3.9014	468.782052744	6.0
3.9117	469.136708405	13.0
3.9219	469.486817372	15.0
3.9322	469.839248033	5.0
3.9424	470.187160524	9.0
3.9526	470.533985273	14.0
3.9629	470.883109938	13.0
3.9731	471.227758816	16.0
3.9834	471.57469318	12.0
3.9936	471.917179836	9.0
4.0038	472.258595716	10.0
4.0141	472.602275642	12.0
4.0243	472.941549583	16.0
4.0346	473.283073366	6.0
4.0448	473.620218807	9.0
4.055	473.956310169	6.0
4.0653	474.294630269	5.0
4.0755	474.628613098	10.0
4.0858	474.964810682	11.0
4.096	475.296698205	8.0
4.1062	475.627548088	9.0
4.1165	475.960591951	9.0
4.1267	476.289366184	7.0
4.137	476.620320632	12.0
4.1472	476.947032236	10.0
4.1574	477.272722383	11.0
4.1677	477.600572295	7.0
4.1779	477.924219162	6.0
4.1882	478.250012244	10.0
4.1984	478.57162865	11.0
4.2086	478.892239529	14.0
4.2189	479.21497649	4.0
4.2291	479.533575955	7.0
4.2394	479.854288163	8.0
4.2496	480.170888833	11.0
4.2598	480.486499658	13.0
4.2701	480.804203407	10.0
4.2803	481.117834186	13.0
4.2906	481.433544759	8.0
4.3008	481.745207915	14.0
4.311	482.055896663	11.0
4.3213	482.368645695	9.0
4.3315	482.677385277	9.0
4.3418	482.988172218	11.0
4.352	483.294974863	6.0
4.3622	483.600818295	10.0
4.3725	483.908689881	10.0
4.3827	484.212614546	8.0
4.393	484.518554641	11.0
4.4032	484.820572575	12.0
4.4134	485.121646257	7.0
4.4237	485.424716463	9.0
4.4339	485.723901301	7.0
4.4442	486.025070138	8.0
4.4544	486.322377983	9.0
4.4646	486.6187563	10.0
4.4749	486.917100005	7.0
4.4851	487.211618936	7.0
4.4954	487.508090924	4.0
4.5056	487.800762134	6.0
4.5158	488.092518314	11.0
4.5261	488.386209229	4.0
4.5363	488.67613502	7.0
4.5466	488.967983409	11.0
4.5568	489.256090295	16.0
4.567	489.54329642	9.0
4.5773	489.832407109	8.0
4.5875	490.117811391	11.0
4.5978	490.405108288	11.0
4.608	490.688722032	9.0
4.6182	490.971449063	8.0
4.6285	491.256050955	6.0
4.6387	491.537004243	7.0
4.649	491.81982063	2.0
4.6592	492.099011304	7.0
4.6694	492.377329094	4.0
4.6797	492.657492506	8.0
4.6899	492.934064216	11.0
4.7002	493.212469968	9.0
4.7104	493.487306552	9.0
4.7206	493.761283865	5.0
4.7309	494.037078016	14.0
4.7411	494.30933648	6.0
4.7514	494.583400384	10.0
4.7616	494.853950781	5.0
4.7718	495.123655309	5.0
4.7821	495.39514834	7.0
4.7923	495.663160824	6.0
4.8026	495.932950592	4.0
4.8128	496.199281648	11.0
4.823	496.464780025	11.0
4.8333	496.732039014	8.0
4.8435	496.995871737	10.0
4.8538	497.261454025	14.0
4.864	497.523631542	6.0
4.8742	497.784989366	11.0
4.8845	498.048080345	8.0
4.8947	498.307798491	8.0
4.905	498.569238917	7.0
4.9152	498.827327671	5.0
4.9254	499.084609516	6.0
4.9357	499.343597485	11.0
4.9459	499.599265223	4.0
4.9562	499.856628381	6.0
4.9664	500.110692138	8.0
4.9766	500.363961569	13.0
4.9869	500.618910518	12.0
4.9971	500.870591015	7.0
5.0074	501.123940492	10.0
5.0176	501.374042023	6.0
5.0278	501.623361617	4.0
5.0381	501.874334535	11.0
5.0483	502.122089974	4.0
5.0586	502.371488365	7.0
5.0688	502.617689463	6.0
5.079	502.863120818	9.0
5.0893	503.110179713	10.0
5.0995	503.354071307	3.0
5.1098	503.59958023	5.0
5.12	503.841941724	10.0
5.1302	504.083545479	6.0
5.1405	504.326751392	8.0
5.1507	504.566839399	7.0
5.161	504.808519513	8.0
5.1712	505.047101282	8.0
5.1814	505.284937129	11.0
5.1917	505.524350149	5.0
5.2019	505.760693888	7.0
5.2122	505.998604904	6.0
5.2224	506.233465895	7.0
5.2326	506.467592598	7.0
5.2429	506.703271876	7.0
5.2531	506.935929739	4.0
5.2634	507.170130438	8.0
5.2736	507.401328678	6.0
5.2838	507.631804081	9.0
5.2941	507.863807847	6.0
5.3043	508.092837318	4.0
5.3146	508.323385564	4.0
5.3248	508.550978175	3.0
5.335	508.777859222	4.0
5.3453	509.006244796	6.0
5.3555	509.231702462	4.0
5.3658	509.458655215	3.0
5.376	509.682698428	4.0
5.3862	509.906041175	0.0
5.3965	510.130864985	8.0
5.4067	510.352806548	7.0
5.417	510.576219883	3.0
5.4272	510.796769053	7.0
5.4374	511.01662868	5.0
5.4477	511.237946273	0.0
5.4579	511.456426569	2.0
5.4682	511.676355683	7.0
5.4784	511.8934653	3.0
5.4886	512.109896129	5.0
5.4989	512.327762186	5.0
5.5091	512.542835194	3.0
5.5194	512.759334426	7.0
5.5296	512.973058132	3.0
5.5398	513.186113636	6.0
5.5501	513.400581984	2.0
5.5603	513.612300843	1.0
5.5706	513.825423683	3.0
5.5808	514.035814283	2.0
5.591	514.245547101	0.0
5.6013	514.456670729	3.0
5.6115	514.665087748	3.0
5.6218	514.874886852	6.0
5.632	515.081996327	5.0
5.6422	515.288458277	3.0
5.6525	515.496289349	3.0
5.6627	515.701456021	4.0
5.673	515.907983224	2.0
5.6832	516.111862744	4.0
5.6934	516.315104838	1.0
5.7037	516.519694701	3.0
5.7139	516.721661717	2.0
5.7242	516.924968046	2.0
5.7344	517.125667982	2.0
5.7446	517.325740435	1.0
5.7549	517.527139637	4.0
5.7651	517.725956897	0.0
5.7754	517.926092582	0.0
5.7856	518.123662524	2.0
5.7958	518.320614766	1.0
5.8061	518.518873068	2.0
5.8163	518.714589693	1.0
5.8266	518.911604182	2.0
5.8368	519.106092941	0.0
5.847	519.299973635	1.0
5.8573	519.495140019	2.0
5.8675	519.687804365	0.0
5.8778	519.881746335	1.0
5.888	520.073201964	1.0
5.8982	520.264059011	1.0
5.9085	520.456181698	1.0
5.9187	520.645841366	2.0
5.929	520.836758734	2.0
5.9392	521.025228536	1.0
5.9494	521.213109091	1.0
5.9597	521.402235547	3.0
5.9699	521.588937398	0.0
5.9802	521.776877333	0.0
5.9904	521.962407873	1.0
6.0006	522.147358356	0.0
6.0109	522.333535309	1.0
6.0211	522.51732547	1.0
6.0314	522.702334406	2.0
6.0416	522.884971524	1.0
6.0518	523.06703763	1.0
6.0621	523.250311079	1.0
6.0723	523.431234959	1.0
6.0826	523.613358607	1.0
6.0928	523.793147426	1.0
6.103	523.972374138	3.0
6.1133	524.152789365	0.0
6.1235	524.330891665	0.0
6.1338	524.510175022	2.0
6.144	524.687159962	1.0
6.1542	524.863591563	0.0
6.1645	525.041193142	2.0
6.1747	525.216517865	0.0
6.185	525.393005226	1.0
6.1952	525.567230016	1.0
6.2054	525.740910095	3.0
6.2157	525.915741907	1.0
6.2259	526.088332371	0.0
6.2362	526.262067341	0.0
6.2464	526.433575026	1.0
6.2566	526.604546494	1.0
6.2669	526.776651734	1.0
6.2771	526.946550581	1.0
6.2874	527.117576085	0.0
6.2976	527.286409039	0.0
6.3078	527.454714139	1.0
6.3181	527.624135329	0.0
6.3283	527.791384535	0.0
6.3386	527.959742829	0.0
6.3488	528.125942765	0.0
6.359	528.29162308	1.0
6.3693	528.458402079	1.0
6.3795	528.623042967	2.0
6.3898	528.788775646	1.0
6.4	528.952383627	0.0
6.4102	529.115480092	1.0
6.4205	529.279658106	0.0
6.4307	529.441731353	0.0
6.441	529.604879365	0.0
6.4512	529.765935814	1.0
6.4614	529.926488725	2.0
6.4717	530.088106317	2.0
6.4819	530.247651967	0.0
6.4922	530.40825562	2.0
6.5024	530.56680033	0.0
6.5126	530.724849354	0.0
6.5229	530.883946455	0.0
6.5331	531.041003927	1.0
6.5434	531.199102902	2.0
6.5536	531.355175044	1.0
6.5638	531.51075923	0.0
6.5741	531.667375148	0.0
6.5843	531.821983246	2.0
6.5946	531.977616605	0.0
6.6048	532.131254739	1.0
6.615	532.284412527	2.0
6.6253	532.438585958	2.0
6.6355	532.590782881	1.0
6.6458	532.743989075	1.0
6.656	532.895231162	1.0
6.6662	533.046000393	3.0
6.6765	533.197769427	0.0
6.6867	533.347592779	0.0
6.697	533.498409661	1.0
6.7072	533.647293067	2.0
6.7174	533.795710991	3.0
6.7277	533.945113127	1.0
6.7379	534.092599924	0.0
6.7482	534.241064756	0.0
6.7584	534.387626266	1.0
6.7686	534.533729554	1.0
6.7789	534.680801703	0.0
6.7891	534.825988384	0.0
6.7994	534.972137849	1.0
6.8096	535.116413673	1.0
6.8198	535.260238422	1.0
6.8301	535.405016923	1.0
6.8403	535.547939359	0.0
6.8506	535.691809564	0.0
6.8608	535.83383535	1.0
6.871	535.975417094	4.0
6.8813	536.117937716	0.0
6.8915	536.25863122	1.0
6.9018	536.400257712	0.0
6.912	536.540068548	2.0
6.9222	536.679442269	2.0
6.9325	536.819740225	1.0
6.9427	536.958239558	0.0
6.953	537.097657328	1.0
6.9632	537.235287759	0.0
6.9734	537.37248789	0.0
6.9837	537.510597844	3.0
6.9939	537.646937224	0.0
7.0042	537.784180718	0.0
7.0144	537.919664747	3.0
7.0246	538.054725188	1.0
7.0349	538.190681262	0.0
7.0451	538.324894375	2.0
7.0554	538.459997502	2.0
7.0656	538.593368604	0.0
7.0758	538.726322723	1.0
7.0861	538.860158508	3.0
7.0963	538.992278514	0.0
7.1066	539.125274654	2.0
7.1168	539.25656578	1.0
7.127	539.387446426	0.0
7.1373	539.519194988	0.0
7.1475	539.64925453	0.0
7.1578	539.780176542	2.0
7.168	539.90942013	0.0
7.1782	540.038259641	1.0
7.1885	540.167953532	1.0
7.1987	540.295984743	0.0
7.209	540.424864974	1.0
7.2192	540.552092957	2.0
7.2294	540.678923164	1.0
7.2397	540.806594426	0.0
7.2499	540.93262894	1.0
7.2602	541.059499232	0.0
7.2704	541.184743044	2.0
7.2806	541.309595283	1.0
7.2909	541.435275461	0.0
7.3011	541.559344416	1.0
7.3114	541.684236116	1.0
7.3216	541.8075267	2.0
7.3318	541.930431819	2.0
7.3421	542.054151964	1.0
7.3523	542.176286015	1.0
7.3626	542.299229978	2.0
7.3728	542.420597796	1.0
7.383	542.541586161	1.0
7.3933	542.663376841	0.0
7.4035	542.783606162	1.0
7.4138	542.904632765	2.0
7.424	543.024107804	0.0
7.4342	543.143209307	1.0
7.4445	543.263100613	2.0
7.4547	543.381454909	1.0
7.465	543.500594054	0.0
7.4752	543.618205832	0.0
7.4854	543.7354499	1.0
7.4957	543.853471453	2.0
7.5059	543.969979967	1.0
7.5162	544.087261089	1.0
7.5264	544.203038665	0.0
7.5366	544.318454264	0.0
7.5469	544.434635224	1.0
7.5571	544.549326741	1.0
7.5674	544.664778817	0.0
7.5776	544.778750795	0.0
7.5878	544.892366442	0.0
7.5981	545.006735513	1.0
7.6083	545.11963837	0.0
7.6186	545.233289926	0.0
7.6288	545.345484465	0.0
7.639	545.45732823	0.0
7.6493	545.56991367	1.0
7.6595	545.681055762	1.0
7.6698	545.792934876	0.0
7.68	545.903379697	2.0
7.6902	546.013479214	0.0
7.7005	546.124308839	1.0
7.7107	546.233717626	2.0
7.721	546.34385194	1.0
7.7312	546.45257433	0.0
7.7414	546.560956801	1.0
7.7517	546.670057994	2.0
7.7619	546.777760507	1.0
7.7722	546.886177233	0.0
7.7824	546.993204053	0.0
7.7926	547.099896256	0.0
7.8029	547.207295973	0.0
7.8131	547.313318822	2.0
7.8234	547.420044746	1.0
7.8336	547.52540244	0.0
7.8438	547.630430736	1.0
7.8541	547.736155511	4.0
7.8643	547.840524891	1.0
7.8746	547.945586381	0.0
7.8848	548.04930098	0.0
7.895	548.152691318	2.0
7.9053	548.256767273	1.0
7.9155	548.359508971	0.0
7.9258	548.462931985	2.0
7.936	548.565029114	0.0
7.9462	548.666807038	1.0
7.9565	548.769259887	0.0
7.9667	548.870399287	0.0
7.977	548.972209378	0.0
7.9872	549.072714261	0.0
7.9974	549.172904918	1.0
8.0077	549.273759973	1.0
8.0179	549.373322065	0.0
8.0282	549.473544386	1.0
8.0384	549.572481856	4.0
8.0486	549.671109999	1.0
8.0589	549.77039218	0.0
8.0691	549.86840156	2.0
8.0794	549.967060875	1.0
8.0896	550.064455375	3.0
8.0998	550.161545373	0.0
8.1101	550.259279208	0.0
8.1203	550.355760094	0.0
