TL-DOS Lehrstuhlversuch
detector=R1406904
job_number=2015-10-26-005
irradiation_dose [mSv]=10.0

[BEGIN DATA]
time [sec] 	 temperature [K] 	 photoncount 
0.0	151.28171992	0.0
0.0102	152.827191042	0.0
0.0205	154.381775428	1.0
0.0307	155.915310073	2.0
0.041	157.457887594	2.0
0.0512	158.979577953	4.0
0.0614	160.495409184	0.0
0.0717	162.020178899	4.0
0.0819	163.524302577	3.0
0.0922	165.037295702	2.0
0.1024	166.52980225	1.0
0.1126	168.016562039	2.0
0.1229	169.512088886	0.0
0.1331	170.987365656	1.0
0.1434	172.471341771	1.0
0.1536	173.935224211	0.0
0.1638	175.393470108	3.0
0.1741	176.860314922	2.0
0.1843	178.307298026	1.0
0.1946	179.762813635	2.0
0.2048	181.198620936	1.0
0.215	182.628899794	1.0
0.2253	184.067612655	1.0
0.2355	185.486844725	1.0
0.2458	186.914445658	0.0
0.256	188.322716261	4.0
0.2662	189.725564448	0.0
0.2765	191.136684886	0.0
0.2867	192.528698146	0.0
0.297	193.928919767	0.0
0.3072	195.310181785	0.0
0.3174	196.686125381	0.0
0.3277	198.070182579	0.0
0.3379	199.435499047	0.0
0.3482	200.808866451	0.0
0.3584	202.16363787	1.0
0.3686	203.513192866	0.0
0.3789	204.870705857	0.0
0.3891	206.209837539	0.0
0.3994	207.556865751	1.0
0.4096	208.885654621	0.0
0.4198	210.209327113	0.0
0.4301	211.540804977	0.0
0.4403	212.854254057	0.0
0.4506	214.175448225	0.0
0.4608	215.478752855	0.0
0.471	216.777039231	0.0
0.4813	218.082981283	0.0
0.4915	219.371240318	1.0
0.5018	220.667095901	0.0
0.512	221.945405041	0.0
0.5222	223.21879217	0.0
0.5325	224.499688151	0.0
0.5427	225.763240248	0.0
0.553	227.034243203	0.0
0.5632	228.288036231	0.0
0.5734	229.537001644	0.0
0.5837	230.7933319	1.0
0.5939	232.032650904	0.0
0.6042	233.279277868	1.0
0.6144	234.509024967	0.0
0.6246	235.734037038	0.0
0.6349	236.966272704	0.0
0.6451	238.18182337	0.0
0.6554	239.404541839	1.0
0.6656	240.610704175	0.0
0.6758	241.812222293	0.0
0.6861	243.020825469	0.0
0.6963	244.213063639	0.0
0.7066	245.412332144	0.0
0.7168	246.595362038	1.0
0.727	247.773836784	0.0
0.7373	248.959260707	0.0
0.7475	250.12863348	0.0
0.7578	251.304901757	0.0
0.768	252.465242856	0.0
0.7782	253.621116168	0.0
0.7885	254.783805382	0.0
0.7987	255.930751283	0.0
0.809	257.084460444	0.0
0.8192	258.222547885	1.0
0.8294	259.356253227	0.0
0.8397	260.49664375	1.0
0.8499	261.621592895	1.0
0.8602	262.753175589	1.0
0.8704	263.869436167	0.0
0.8806	264.981398686	0.0
0.8909	266.099918176	1.0
0.9011	267.20329243	0.0
0.9114	268.313173012	0.0
0.9216	269.408025333	1.0
0.9318	270.498662027	0.0
0.9421	271.595729937	0.0
0.9523	272.677943076	0.0
0.9626	273.76653776	1.0
0.9728	274.840392404	2.0
0.983	275.91011227	0.0
0.9933	276.986140011	0.0
1.0035	278.047597874	0.0
1.0138	279.115314893	0.0
1.024	280.168574565	0.0
1.0342	281.217778757	1.0
1.0445	282.273169849	0.0
1.0547	283.314270492	1.0
1.065	284.36151025	1.0
1.0752	285.394569931	0.0
1.0854	286.423651911	0.0
1.0957	287.458802135	1.0
1.1059	288.479935979	0.0
1.1162	289.5070912	1.0
1.1264	290.520338296	2.0
1.1366	291.529683979	1.0
1.1469	292.544981525	0.0
1.1571	293.546531505	1.0
1.1674	294.55398738	3.0
1.1776	295.54780187	0.0
1.1878	296.537789768	1.0
1.1981	297.533615382	3.0
1.2083	298.515957089	4.0
1.2186	299.504091423	1.0
1.2288	300.478845994	0.0
1.239	301.449847362	0.0
1.2493	302.426574487	1.0
1.2595	303.390076307	2.0
1.2698	304.35925966	1.0
1.28	305.315319854	2.0
1.2902	306.267698826	2.0
1.3005	307.225693744	2.0
1.3107	308.170716998	1.0
1.321	309.121312822	2.0
1.3312	310.05903717	1.0
1.3414	310.993150897	6.0
1.3517	311.932772864	3.0
1.3619	312.859671945	3.0
1.3722	313.792036722	3.0
1.3824	314.711776879	1.0
1.3926	315.627975661	5.0
1.4029	316.549577043	5.0
1.4131	317.458699546	6.0
1.4234	318.373182921	8.0
1.4336	319.275283798	4.0
1.4438	320.173911218	6.0
1.4541	321.077837624	5.0
1.4643	321.969524478	4.0
1.4746	322.86646939	8.0
1.4848	323.751269282	4.0
1.495	324.632662334	7.0
1.5053	325.519252744	11.0
1.5155	326.393838339	11.0
1.5258	327.273581151	9.0
1.536	328.141411866	16.0
1.5462	329.00590108	8.0
1.5565	329.875487974	12.0
1.5667	330.733300287	17.0
1.577	331.596170909	12.0
1.5872	332.447357892	11.0
1.5974	333.295267458	17.0
1.6077	334.148176939	13.0
1.6179	334.989537658	13.0
1.6282	335.835859675	16.0
1.6384	336.670722128	21.0
1.6486	337.50237002	20.0
1.6589	338.338921935	19.0
1.6691	339.164146578	20.0
1.6794	339.994237368	27.0
1.6896	340.813088371	25.0
1.6998	341.628786465	30.0
1.7101	342.44929453	29.0
1.7203	343.258692562	26.0
1.7306	344.072863417	38.0
1.7408	344.876010047	31.0
1.751	345.676064236	27.0
1.7613	346.480836148	34.0
1.7715	347.274711102	36.0
1.7818	348.073267342	44.0
1.792	348.861010787	31.0
1.8022	349.645721098	57.0
1.8125	350.435058654	63.0
1.8227	351.213708239	68.0
1.833	351.99694933	69.0
1.8432	352.769585	64.0
1.8534	353.539245708	61.0
1.8637	354.313444915	69.0
1.8739	355.077161133	57.0
1.8842	355.845380797	85.0
1.8944	356.603198437	92.0
1.9046	357.35809817	93.0
1.9149	358.117449362	105.0
1.9251	358.866518611	117.0
1.9354	359.620004938	124.0
1.9456	360.363288737	110.0
1.9558	361.103710589	123.0
1.9661	361.848498528	129.0
1.9763	362.583201717	148.0
1.9866	363.322237271	126.0
1.9968	364.051265966	151.0
2.007	364.777487603	170.0
2.0173	365.50799159	196.0
2.0275	366.22860424	148.0
2.0378	366.953466165	187.0
2.048	367.668513148	220.0
2.0582	368.380806909	213.0
2.0685	369.097300891	197.0
2.0787	369.804093237	245.0
2.089	370.515053363	228.0
2.0992	371.216386784	277.0
2.1094	371.915019785	291.0
2.1197	372.617772453	290.0
2.1299	373.311009548	324.0
2.1402	374.008334492	320.0
2.1504	374.696217356	294.0
2.1606	375.381451591	391.0
2.1709	376.070726484	379.0
2.1811	376.750668298	408.0
2.1914	377.434619563	424.0
2.2016	378.109309833	476.0
2.2118	378.78140227	473.0
2.2221	379.457457872	487.0
2.2323	380.12435939	501.0
2.2426	380.795193462	553.0
2.2528	381.456944153	534.0
2.263	382.116146834	554.0
2.2733	382.779236671	592.0
2.2835	383.433347986	615.0
2.2938	384.091316435	616.0
2.304	384.740375709	662.0
2.3142	385.38693584	699.0
2.3245	386.037308577	740.0
2.3347	386.678874987	755.0
2.345	387.324224558	792.0
2.3552	387.960835817	840.0
2.3654	388.594995864	878.0
2.3757	389.232895396	883.0
2.3859	389.862157495	956.0
2.3962	390.495130198	922.0
2.4064	391.119532178	935.0
2.4166	391.741529956	1009.0
2.4269	392.367195502	1029.0
2.4371	392.984389268	1083.0
2.4474	393.605222473	1076.0
2.4576	394.217649331	1149.0
2.4678	394.827718095	1107.0
2.4781	395.441384284	1152.0
2.4883	396.04674117	1248.0
2.4986	396.655667697	1243.0
2.5088	397.256349096	1243.0
2.519	397.854717627	1278.0
2.5293	398.456614591	1259.0
2.5395	399.050361611	1310.0
2.5498	399.647609811	1382.0
2.56	400.236771014	1318.0
2.5702	400.823663706	1344.0
2.5805	401.41401716	1336.0
2.5907	401.996376974	1407.0
2.601	402.582170821	1363.0
2.6112	403.160032768	1369.0
2.6214	403.735669711	1417.0
2.6317	404.314701043	1375.0
2.6419	404.885892042	1365.0
2.6522	405.460451214	1385.0
2.6624	406.027230608	1346.0
2.6726	406.59182767	1355.0
2.6829	407.159754022	1349.0
2.6931	407.719990408	1299.0
2.7034	408.283530369	1278.0
2.7136	408.839439758	1246.0
2.7238	409.393208668	1261.0
2.7341	409.950243018	1232.0
2.7443	410.499734883	1194.0
2.7546	411.052466967	1186.0
2.7648	411.597714821	1148.0
2.775	412.140863248	1080.0
2.7853	412.687214488	1121.0
2.7955	413.226167897	1088.0
2.8058	413.768299382	1044.0
2.816	414.303090174	969.0
2.8262	414.835821803	1027.0
2.8365	415.37169482	993.0
2.8467	415.900311886	963.0
2.857	416.432046077	952.0
2.8672	416.956580358	906.0
2.8774	417.479094968	890.0
2.8877	418.004690719	881.0
2.8979	418.523169677	873.0
2.9082	419.044705979	851.0
2.9184	419.559180454	849.0
2.9286	420.071673993	839.0
2.9389	420.587189581	759.0
2.9491	421.095724866	804.0
2.9594	421.607258858	775.0
2.9696	422.111866461	806.0
2.9798	422.614531118	770.0
2.9901	423.120159866	811.0
3.0003	423.618942182	761.0
3.0106	424.120665696	785.0
3.0208	424.615595657	766.0
3.031	425.108619937	821.0
3.0413	425.604551459	809.0
3.0515	426.093767856	779.0
3.0618	426.585869041	822.0
3.072	427.071306965	886.0
3.0822	427.554875755	897.0
3.0925	428.041296031	818.0
3.1027	428.521129967	903.0
3.113	429.003793367	925.0
3.1232	429.479921296	957.0
3.1334	429.954215939	976.0
3.1437	430.431307381	949.0
3.1539	430.901938799	1074.0
3.1642	431.375345416	991.0
3.1744	431.842341903	1071.0
3.1846	432.307540263	1102.0
3.1949	432.775481784	1112.0
3.2051	433.237087176	1135.0
3.2154	433.701414541	1164.0
3.2256	434.159454714	1203.0
3.2358	434.615731245	1177.0
3.2461	435.074698328	1208.0
3.2563	435.527450798	1251.0
3.2666	435.982873039	1252.0
3.2768	436.432128667	1275.0
3.287	436.879654477	1342.0
3.2973	437.329819237	1350.0
3.3075	437.773888573	1310.0
3.3178	438.220576477	1379.0
3.328	438.661216034	1406.0
3.3382	439.10015895	1413.0
3.3485	439.541690204	1447.0
3.3587	439.977242934	1452.0
3.369	440.415364013	1475.0
3.3792	440.847552744	1436.0
3.3894	441.278077371	1463.0
3.3997	441.711140697	1496.0
3.4099	442.138340159	1547.0
3.4202	442.568058712	1526.0
3.4304	442.99195869	1577.0
3.4406	443.414226481	1572.0
3.4509	443.838984282	1498.0
3.4611	444.257990679	1535.0
3.4714	444.679467853	1605.0
3.4816	445.095238046	1546.0
3.4918	445.509407354	1542.0
3.5021	445.926018917	1555.0
3.5123	446.336989379	1578.0
3.5226	446.750383234	1477.0
3.5328	447.158179558	1541.0
3.543	447.564405701	1525.0
3.5533	447.973027259	1522.0
3.5635	448.376115905	1524.0
3.5738	448.781581466	1474.0
3.584	449.181556849	1486.0
3.5942	449.579992164	1465.0
3.6045	449.980776954	1553.0
3.6147	450.376134946	1457.0
3.625	450.773824266	1466.0
3.6352	451.166128702	1475.0
3.6454	451.556922606	1426.0
3.6557	451.950020926	1352.0
3.6659	452.337796526	1438.0
3.6762	452.727858743	1380.0
3.6864	453.11263935	1293.0
3.6966	453.495938394	1378.0
3.7069	453.88149766	1349.0
3.7171	454.261836286	1360.0
3.7274	454.644417677	1358.0
3.7376	455.02181875	1279.0
3.7478	455.397766676	1265.0
3.7581	455.775931474	1340.0
3.7683	456.148975759	1276.0
3.7786	456.524219794	1240.0
3.7888	456.894382863	1281.0
3.799	457.263120654	1264.0
3.8093	457.6340328	1238.0
3.8195	457.999922637	1197.0
3.8298	458.367970037	1212.0
3.84	458.731033916	1233.0
3.8502	459.092699851	1246.0
3.8605	459.456498442	1262.0
3.8707	459.815371043	1255.0
3.881	460.176359828	1213.0
3.8912	460.532460669	1173.0
3.9014	460.887190377	1187.0
3.9117	461.244011839	1234.0
3.9219	461.596001785	1204.0
3.9322	461.950067329	1210.0
3.9424	462.299338674	1136.0
3.9526	462.647265181	1224.0
3.9629	462.997243326	1206.0
3.9731	463.342482616	1213.0
3.9834	463.689757698	1114.0
3.9936	464.032330525	1169.0
4.0038	464.373584307	1188.0
4.0141	464.71685038	1092.0
4.0243	465.055468481	1179.0
4.0346	465.396083331	1218.0
4.0448	465.732086109	1224.0
4.055	466.06679514	1131.0
4.0653	466.403477867	1189.0
4.0755	466.735601766	1213.0
4.0858	467.069684118	1250.0
4.096	467.399242851	1146.0
4.1062	467.727532648	1153.0
4.1165	468.05775829	1203.0
4.1267	468.383512534	1171.0
4.137	468.711187672	1210.0
4.1472	469.034425947	1220.0
4.1574	469.356419623	1211.0
4.1677	469.680312017	1207.0
4.1779	469.999818768	1187.0
4.1882	470.321209572	1191.0
4.1984	470.638248607	1221.0
4.2086	470.954066912	1208.0
4.2189	471.27174752	1161.0
4.2291	471.585126595	1189.0
4.2394	471.900353591	1228.0
4.2496	472.211312277	1176.0
4.2598	472.521073646	1193.0
4.2701	472.832661601	1147.0
4.2803	473.140030521	1124.0
4.2906	473.449211921	1196.0
4.3008	473.754206871	1163.0
4.311	474.058027467	1147.0
4.3213	474.363639618	1176.0
4.3315	474.665113649	1189.0
4.3418	474.968365398	1219.0
4.352	475.267510988	1096.0
4.3622	475.565504746	1142.0
4.3725	475.8652557	1184.0
4.3827	476.160947897	1173.0
4.393	476.458383718	1184.0
4.4032	476.75179213	1175.0
4.4134	477.0440708	1135.0
4.4237	477.338072966	1096.0
4.4339	477.628094216	1139.0
4.4442	477.919825651	1189.0
4.4544	478.207606916	1115.0
4.4646	478.494280106	1144.0
4.4749	478.782643737	1136.0
4.4851	479.067102801	1164.0
4.4954	479.35323925	1141.0
4.5056	479.635501288	1150.0
4.5158	479.916676503	1061.0
4.5261	480.199509738	1098.0
4.5363	480.478513291	1114.0
4.5466	480.759162058	1048.0
4.5568	481.036010721	1027.0
4.567	481.311793403	1105.0
4.5773	481.589202308	1075.0
4.5875	481.862854977	1107.0
4.5978	482.138121309	1057.0
4.608	482.409660416	1068.0
4.6182	482.680153987	1048.0
4.6285	482.952242593	1091.0
4.6387	483.220647001	1005.0
4.649	483.490634124	1056.0
4.6592	483.756965506	1045.0
4.6694	484.022271403	1043.0
4.6797	484.289141744	1058.0
4.6899	484.552398546	999.0
4.7002	484.817207708	939.0
4.7104	485.078431241	1037.0
4.7206	485.338648957	1007.0
4.7309	485.600401112	1015.0
4.7411	485.858609031	1031.0
4.7514	486.118339538	1027.0
4.7616	486.374553183	966.0
4.7718	486.6297803	985.0
4.7821	486.88651243	971.0
4.7923	487.139768295	943.0
4.8026	487.394517549	959.0
4.8128	487.645817388	1005.0
4.823	487.89614962	993.0
4.8333	488.147958	960.0
4.8435	488.396356786	935.0
4.8538	488.646220319	964.0
4.864	488.892700592	949.0
4.8742	489.138231816	970.0
4.8845	489.385210877	910.0
4.8947	489.628845735	949.0
4.905	489.873917249	980.0
4.9152	490.115670388	953.0
4.9254	490.356492679	950.0
4.9357	490.598735041	953.0
4.9459	490.837697336	953.0
4.9562	491.078068734	924.0
4.9664	491.315185399	936.0
4.9766	491.551389069	940.0
4.9869	491.788985574	943.0
4.9971	492.023364919	885.0
5.0074	492.259126343	946.0
5.0176	492.491695455	955.0
5.0278	492.723369081	938.0
5.0381	492.95640883	913.0
5.0483	493.186293121	966.0
5.0586	493.417532982	899.0
5.0688	493.645641757	941.0
5.079	493.872872219	925.0
5.0893	494.101442604	985.0
5.0995	494.326918048	925.0
5.1098	494.553723065	907.0
5.12	494.777457044	943.0
5.1302	495.000329557	973.0
5.1405	495.224516294	1007.0
5.1507	495.445667446	923.0
5.161	495.668122672	969.0
5.1712	495.887565759	941.0
5.1814	496.1061639	976.0
5.1917	496.326051061	900.0
5.2019	496.542960855	932.0
5.2122	496.761149713	964.0
5.2224	496.9763842	972.0
5.2326	497.190789947	956.0
5.2429	497.406459991	926.0
5.2531	497.619209771	935.0
5.2634	497.833214083	965.0
5.2736	498.044320686	942.0
5.2838	498.254614441	966.0
5.2941	498.466148248	988.0
5.3043	498.674817795	921.0
5.3146	498.884717816	934.0
5.3248	499.0917757	967.0
5.335	499.298036327	941.0
5.3453	499.505513222	965.0
5.3555	499.710180791	952.0
5.3658	499.916055234	919.0
5.376	500.119142049	971.0
5.3862	500.321446897	903.0
5.3965	500.524944687	942.0
5.4067	500.725687029	953.0
5.417	500.927613099	934.0
5.4272	501.126805004	949.0
5.4374	501.325229938	950.0
5.4477	501.524824936	954.0
5.4579	501.721717332	905.0
5.4682	501.919770753	930.0
5.4784	502.115142447	912.0
5.4886	502.309761879	897.0
5.4989	502.505528935	927.0
5.5091	502.69864522	873.0
5.5194	502.892900265	888.0
5.5296	503.084525013	853.0
5.5398	503.275411927	823.0
5.5501	503.467424455	900.0
5.5603	503.656837051	847.0
5.5706	503.847366566	823.0
5.5808	504.035316229	848.0
5.591	504.22254221	864.0
5.6013	504.410872216	871.0
5.6115	504.596652153	814.0
5.6218	504.783527589	821.0
5.632	504.967872651	744.0
5.6422	505.15150791	788.0
5.6525	505.33622602	803.0
5.6627	505.518442968	787.0
5.673	505.701734404	794.0
5.6832	505.882543996	781.0
5.6934	506.062657396	752.0
5.7037	506.243832882	748.0
5.7139	506.422555173	697.0
5.7242	506.602331346	724.0
5.7344	506.779673272	760.0
5.7446	506.956332359	713.0
5.7549	507.134033162	689.0
5.7651	507.30932782	691.0
5.7754	507.485656146	664.0
5.7856	507.659596912	701.0
5.7958	507.832867935	687.0
5.8061	508.007160694	643.0
5.8163	508.179093455	607.0
5.8266	508.35204006	636.0
5.8368	508.522644895	622.0
5.847	508.692592831	617.0
5.8573	508.863542908	609.0
5.8675	509.032178248	538.0
5.8778	509.201807989	580.0
5.888	509.369140871	569.0
5.8982	509.535829452	518.0
5.9085	509.703500956	571.0
5.9187	509.868902114	563.0
5.929	510.035278604	514.0
5.9392	510.199402283	571.0
5.9494	510.36289402	481.0
5.9597	510.527349827	496.0
5.9699	510.689578832	470.0
5.9802	510.852764462	502.0
5.9904	511.013740488	435.0
6.0006	511.174096691	441.0
6.0109	511.335398474	428.0
6.0211	511.494516163	410.0
6.0314	511.654572129	400.0
6.0416	511.812460869	389.0
6.0518	511.969741672	402.0
6.0621	512.127949922	384.0
6.0723	512.284015964	384.0
6.0826	512.44100229	366.0
6.0928	512.595862953	338.0
6.103	512.750127339	337.0
6.1133	512.905301384	319.0
6.1235	513.058374306	311.0
6.1338	513.212349862	285.0
6.144	513.364240522	289.0
6.1542	513.515546342	315.0
6.1645	513.667744374	266.0
6.1747	513.81788158	297.0
6.185	513.968904108	298.0
6.1952	514.117881727	267.0
6.2054	514.26628572	258.0
6.2157	514.415564816	214.0
6.2259	514.562822608	241.0
6.2362	514.710948743	244.0
6.2464	514.857069187	237.0
6.2566	515.002627007	222.0
6.2669	515.149043147	188.0
6.2771	515.293476748	221.0
6.2874	515.43876204	196.0
6.2976	515.582080106	206.0
6.3078	515.724846338	198.0
6.3181	515.868454429	177.0
6.3283	516.010118004	175.0
6.3386	516.152616934	175.0
6.3488	516.293186368	177.0
6.359	516.433214552	166.0
6.3693	516.574068447	152.0
6.3795	516.713015121	154.0
6.3898	516.852781129	145.0
6.4	516.990654645	125.0
6.4102	517.127997292	119.0
6.4205	517.266149814	132.0
6.4307	517.402431692	124.0
6.441	517.539517191	102.0
6.4512	517.674746493	119.0
6.4614	517.809455108	123.0
6.4717	517.944958065	115.0
6.4819	518.078626255	87.0
6.4922	518.213082653	95.0
6.5024	518.345718454	87.0
6.5126	518.477843552	106.0
6.5229	518.61074776	87.0
6.5331	518.741852388	88.0
6.5434	518.873730108	80.0
6.5536	519.003822147	82.0
6.5638	519.133413278	82.0
6.5741	519.263768576	87.0
6.5843	519.392358808	84.0
6.5946	519.521707304	72.0
6.6048	519.649304367	60.0
6.615	519.776410128	71.0
6.6253	519.904265401	63.0
6.6355	520.030389459	72.0
6.6458	520.157257239	58.0
6.656	520.282407175	52.0
6.6662	520.407075233	39.0
6.6765	520.532478427	51.0
6.6867	520.656183609	63.0
6.697	520.780618249	52.0
6.7072	520.903367991	55.0
6.7174	521.025645097	38.0
6.7277	521.14864324	47.0
6.7379	521.269975936	53.0
6.7482	521.392024101	45.0
6.7584	521.512419681	38.0
6.7686	521.632351689	28.0
6.7789	521.752990907	37.0
6.7891	521.871996618	29.0
6.7994	521.991704076	31.0
6.8096	522.109790644	29.0
6.8198	522.22742253	39.0
6.8301	522.345748063	27.0
6.8403	522.462471417	38.0
6.8506	522.57988306	26.0
6.8608	522.695704899	29.0
6.871	522.811080777	34.0
6.8813	522.927136998	23.0
6.8915	523.041621767	35.0
6.9018	523.156781626	17.0
6.912	523.27038217	24.0
6.9222	523.383545306	30.0
6.9325	523.497375737	17.0
6.9427	523.609664855	31.0
6.953	523.722616115	18.0
6.9632	523.834037966	19.0
6.9734	523.945030797	28.0
6.9837	524.056678126	19.0
6.9939	524.166813702	22.0
7.0042	524.277598721	16.0
7.0144	524.386883662	17.0
7.0246	524.495747812	14.0
7.0349	524.605253907	19.0
7.0451	524.713277243	12.0
7.0554	524.821937566	19.0
7.0656	524.929126581	23.0
7.0758	525.035902875	12.0
7.0861	525.143308802	11.0
7.0963	525.249260407	17.0
7.1066	525.355836783	24.0
7.1168	525.460970068	22.0
7.127	525.565698548	20.0
7.1373	525.671044585	11.0
7.1475	525.774964192	18.0
7.1578	525.879496588	12.0
7.168	525.98261357	14.0
7.1782	526.085333509	14.0
7.1885	526.188659163	15.0
7.1987	526.290585743	8.0
7.209	526.393113359	18.0
7.2192	526.494252707	11.0
7.2294	526.595002627	11.0
7.2397	526.696346645	10.0
7.2499	526.796318421	12.0
7.2602	526.896879706	10.0
7.2704	526.996079348	15.0
7.2806	527.094897031	8.0
7.2909	527.194297418	11.0
7.3011	527.292351881	11.0
7.3114	527.390984546	9.0
7.3216	527.488281683	10.0
7.3318	527.585204187	13.0
7.3421	527.682698219	6.0
7.3523	527.778872139	18.0
7.3626	527.875613174	12.0
7.3728	527.971044293	11.0
7.383	528.066107964	8.0
7.3933	528.161732201	9.0
7.4035	528.256061646	9.0
7.4138	528.350947328	13.0
7.424	528.444548217	9.0
7.4342	528.537788704	12.0
7.4445	528.631579008	7.0
7.4547	528.724099351	5.0
7.465	528.817165263	11.0
7.4752	528.908971023	12.0
7.4854	529.000423293	7.0
7.4957	529.092414835	8.0
7.5059	529.183160772	9.0
7.5162	529.274441816	6.0
7.5264	529.364486874	5.0
7.5366	529.454185223	8.0
7.5469	529.544412501	7.0
7.5571	529.633418063	5.0
7.5674	529.722948468	9.0
7.5776	529.811266594	10.0
7.5878	529.899244658	6.0
7.5981	529.987741508	6.0
7.6083	530.075040072	5.0
7.6186	530.162853414	10.0
7.6288	530.249477726	4.0
7.639	530.3357685	13.0
7.6493	530.422568108	6.0
7.6595	530.508192413	7.0
7.6698	530.594321623	9.0
7.68	530.679284606	9.0
7.6902	530.763920448	7.0
