TL-DOS Lehrstuhlversuch
detector=R1407205
job_number=2015-10-30-003
irradiation_dose [mSv]=0.2

[BEGIN DATA]
time [sec] 	 temperature [K] 	 photoncount 
0.0	90.6346268588	0.0
0.0102	92.630015042	0.0
0.0205	94.6360056919	1.0
0.0307	96.6136869274	1.0
0.041	98.601876544	1.0
0.0512	100.562007962	0.0
0.0614	102.513465384	3.0
0.0717	104.475291847	0.0
0.0819	106.40943216	1.0
0.0922	108.3538495	1.0
0.1024	110.270826375	1.0
0.1126	112.179320222	0.0
0.1229	114.097954824	2.0
0.1331	115.989512818	0.0
0.1434	117.891121578	0.0
0.1536	119.765894007	0.0
0.1638	121.632370171	2.0
0.1741	123.508763829	3.0
0.1843	125.358677003	0.0
0.1946	127.218419664	1.0
0.2048	129.051916825	2.0
0.215	130.877300374	0.0
0.2253	132.712383073	1.0
0.2355	134.521568284	2.0
0.2458	136.340366576	1.0
0.256	138.133497193	1.0
0.2662	139.918692828	0.0
0.2765	141.713374074	1.0
0.2867	143.482727996	0.0
0.297	145.261483356	0.0
0.3072	147.015136144	1.0
0.3174	148.761028648	0.0
0.3277	150.516197927	0.0
0.3379	152.246597491	0.0
0.3482	153.98619151	0.0
0.3584	155.701235619	0.0
0.3686	157.408690295	0.0
0.3789	159.125217508	0.0
0.3891	160.81752034	0.0
0.3994	162.518815199	0.0
0.4096	164.196100644	0.0
0.4198	165.865963745	0.0
0.4301	167.544699641	0.0
0.4403	169.199744484	0.0
0.4506	170.863583384	0.0
0.4608	172.503941464	0.0
0.471	174.137040613	0.0
0.4813	175.77881721	0.0
0.4915	177.397424341	0.0
0.5018	179.024631918	1.0
0.512	180.628875632	0.0
0.5222	182.226020229	0.0
0.5325	183.83165123	0.0
0.5427	185.414622867	0.0
0.553	187.006005601	0.0
0.5632	188.574930049	0.0
0.5734	190.136911674	0.0
0.5837	191.707192866	0.0
0.5939	193.255313565	0.0
0.6042	194.811660182	0.0
0.6144	196.346042956	0.0
0.6246	197.873635763	0.0
0.6349	199.409345412	1.0
0.6451	200.923382457	0.0
0.6554	202.445464317	1.0
0.6656	203.946065893	0.0
0.6758	205.440026991	0.0
0.6861	206.941926229	1.0
0.6963	208.422630011	0.0
0.7066	209.911201491	0.0
0.7168	211.378765602	0.0
0.727	212.839835431	0.0
0.7373	214.308668633	1.0
0.7475	215.756773022	1.0
0.7578	217.212571892	0.0
0.768	218.647825894	0.0
0.7782	220.076728594	0.0
0.7885	221.513223747	1.0
0.7987	222.929446456	0.0
0.809	224.353194243	0.0
0.8192	225.756849481	0.0
0.8294	227.154293247	1.0
0.8397	228.559162311	0.0
0.8499	229.944205251	0.0
0.8602	231.336607596	0.0
0.8704	232.709359753	0.0
0.8806	234.076037191	0.0
0.8909	235.44997645	0.0
0.9011	236.804526079	0.0
0.9114	238.166273088	0.0
0.9216	239.508802531	0.0
0.9318	240.845390996	0.0
0.9421	242.189081405	0.0
0.9523	243.513809069	0.0
0.9626	244.845575655	1.0
0.9728	246.158547771	0.0
0.983	247.465709707	0.0
0.9933	248.77981723	0.0
1.0035	250.075379494	0.0
1.0138	251.37782571	0.0
1.024	252.661891237	0.0
1.0342	253.940274503	0.0
1.0445	255.22545044	0.0
1.0547	256.492489414	1.0
1.065	257.766260781	1.0
1.0752	259.022056132	0.0
1.0854	260.272294322	0.0
1.0957	261.529175636	1.0
1.1059	262.768319293	0.0
1.1162	264.014047121	0.0
1.1264	265.242194696	0.0
1.1366	266.464907458	1.0
1.1469	267.694117086	0.0
1.1571	268.905979573	0.0
1.1674	270.124281274	0.0
1.1776	271.32538977	0.0
1.1878	272.521183107	0.0
1.1981	273.723330274	1.0
1.2083	274.908512217	0.0
1.2186	276.099991608	2.0
1.2288	277.274656321	1.0
1.239	278.444122895	1.0
1.2493	279.619803413	0.0
1.2595	280.778892215	0.0
1.2698	281.944139819	0.0
1.28	283.092942941	0.0
1.2902	284.236662366	0.0
1.3005	285.386458928	0.0
1.3107	286.520029059	0.0
1.321	287.6596224	0.0
1.3312	288.783133302	0.0
1.3414	289.901672431	0.0
1.3517	291.026154902	0.0
1.3619	292.134768186	0.0
1.3722	293.249272071	0.0
1.3824	294.348047591	0.0
1.3926	295.441960797	0.0
1.4029	296.541686496	0.0
1.4131	297.625892386	0.0
1.4234	298.715859188	2.0
1.4336	299.790443904	0.0
1.4438	300.860273355	3.0
1.4541	301.93578733	1.0
1.4643	302.996123183	0.0
1.4746	304.062093115	0.0
1.4848	305.113019615	0.0
1.495	306.159295543	1.0
1.5053	307.211130843	0.0
1.5155	308.248122185	0.0
1.5258	309.290623566	0.0
1.536	310.318412713	0.0
1.5462	311.341653675	1.0
1.5565	312.370331614	0.0
1.5667	313.384492401	0.0
1.577	314.404041917	1.0
1.5872	315.409203106	0.0
1.5974	316.409916244	0.0
1.6077	317.415946657	0.0
1.6179	318.407779531	0.0
1.6282	319.404882494	0.0
1.6384	320.387913905	4.0
1.6486	321.366595195	1.0
1.6589	322.350476694	2.0
1.6691	323.320473228	0.0
1.6794	324.295623825	0.0
1.6896	325.257012672	1.0
1.6998	326.21414717	0.0
1.7101	327.176367388	1.0
1.7203	328.125008335	5.0
1.7306	329.078689872	0.0
1.7408	330.01891264	1.0
1.751	330.954974723	0.0
1.7613	331.896010558	3.0
1.7715	332.823766086	3.0
1.7818	333.75645123	0.0
1.792	334.675973914	1.0
1.8022	335.591427516	0.0
1.8125	336.511745367	2.0
1.8227	337.419075292	3.0
1.833	338.331226302	1.0
1.8432	339.230504639	2.0
1.8534	340.125803479	1.0
1.8637	341.025859476	3.0
1.8739	341.913213491	0.0
1.8842	342.805282449	2.0
1.8944	343.684762141	2.0
1.9046	344.56034995	1.0
1.9149	345.440590182	3.0
1.9251	346.308408079	1.0
1.9354	347.180837115	3.0
1.9456	348.040954053	7.0
1.9558	348.89726479	4.0
1.9661	349.758125523	2.0
1.9763	350.606837414	1.0
1.9866	351.460058923	3.0
1.9968	352.301239398	4.0
2.007	353.138697472	4.0
2.0173	353.980605368	4.0
2.0275	354.810631892	5.0
2.0378	355.64506875	6.0
2.048	356.467729672	2.0
2.0582	357.286750145	5.0
2.0685	358.110122472	1.0
2.0787	358.92187501	7.0
2.089	359.737940783	5.0
2.0992	360.54248988	7.0
2.1094	361.343478677	5.0
2.1197	362.148723517	6.0
2.1299	362.942604391	3.0
2.1402	363.740703539	5.0
2.1504	364.527539565	6.0
2.1606	365.310893674	8.0
2.1709	366.098410125	7.0
2.1811	366.8748128	4.0
2.1914	367.655340879	5.0
2.2016	368.424853807	7.0
2.2118	369.190961476	11.0
2.2221	369.961139848	6.0
2.2323	370.720449127	3.0
2.2426	371.483792985	13.0
2.2528	372.236364202	6.0
2.263	372.985605132	8.0
2.2733	373.738827142	6.0
2.2835	374.481419356	11.0
2.2938	375.227957323	11.0
2.304	375.96395982	17.0
2.3142	376.696705351	10.0
2.3245	377.433344315	8.0
2.3347	378.159587509	16.0
2.345	378.889689585	12.0
2.3552	379.609488143	14.0
2.3654	380.32610144	9.0
2.3757	381.046522451	14.0
2.3859	381.756776567	13.0
2.3962	382.470804608	18.0
2.4064	383.174755975	14.0
2.4166	383.875592207	14.0
2.4269	384.580152323	13.0
2.4371	385.27476938	17.0
2.4474	385.973077274	23.0
2.4576	386.661530343	14.0
2.4678	387.346936861	28.0
2.4781	388.035985278	17.0
2.4883	388.715309542	15.0
2.4986	389.398243387	22.0
2.5088	390.071539371	28.0
2.519	390.741855878	19.0
2.5293	391.415734103	25.0
2.5395	392.080102264	14.0
2.5498	392.748000536	24.0
2.56	393.406473136	24.0
2.5702	394.062031856	31.0
2.5805	394.721073878	21.0
2.5907	395.370815211	26.0
2.601	396.024008936	20.0
2.6112	396.667984507	23.0
2.6214	397.309110349	26.0
2.6317	397.953642804	21.0
2.6419	398.589079336	29.0
2.6522	399.227892252	22.0
2.6624	399.85768996	30.0
2.6726	400.484700681	27.0
2.6829	401.115043015	28.0
2.6931	401.736489682	31.0
2.7034	402.361238398	26.0
2.7136	402.977170387	31.0
2.7238	403.590376748	34.0
2.7341	404.206841371	29.0
2.7443	404.814606177	24.0
2.7546	405.425600332	28.0
2.7648	406.027971872	27.0
2.775	406.62767779	27.0
2.7853	407.230570237	27.0
2.7955	407.824954403	24.0
2.8058	408.422496821	36.0
2.816	409.01160646	28.0
2.8262	409.598109164	21.0
2.8365	410.187728242	29.0
2.8467	410.769026358	20.0
2.857	411.353413194	25.0
2.8672	411.929552908	22.0
2.8774	412.503143082	23.0
2.8877	413.079781019	22.0
2.8979	413.64828119	20.0
2.9082	414.219802079	18.0
2.9184	414.783257415	14.0
2.9286	415.344219343	17.0
2.9389	415.908161934	21.0
2.9491	416.464145921	20.0
2.9594	417.023084122	18.0
2.9696	417.574134343	20.0
2.9798	418.12274605	24.0
2.9901	418.674272797	16.0
3.0003	419.218016159	22.0
3.0106	419.764648693	16.0
3.0208	420.303566911	16.0
3.031	420.840100301	13.0
3.0413	421.379484554	18.0
3.0515	421.911256782	12.0
3.0618	422.445854573	16.0
3.072	422.972907888	16.0
3.0822	423.49762888	17.0
3.0925	424.025137969	15.0
3.1027	424.545202621	24.0
3.113	425.068030628	22.0
3.1232	425.583480259	18.0
3.1334	426.096648916	14.0
3.1437	426.612544288	21.0
3.1539	427.121159119	19.0
3.1642	427.632476468	20.0
3.1744	428.136577883	21.0
3.1846	428.638448543	18.0
3.1949	429.142985886	25.0
3.2051	429.640402978	30.0
3.2154	430.140463088	17.0
3.2256	430.633466133	17.0
3.2358	431.124287534	23.0
3.2461	431.617716908	24.0
3.2563	432.104182792	21.0
3.2666	432.593233505	21.0
3.2768	433.075382521	26.0
3.287	433.555397926	24.0
3.2973	434.037963886	26.0
3.3075	434.513719665	24.0
3.3178	434.992003365	22.0
3.328	435.463537317	34.0
3.3382	435.932984632	25.0
3.3485	436.404926349	16.0
3.3587	436.870207818	27.0
3.369	437.337961553	22.0
3.3792	437.799114145	23.0
3.3894	438.258226038	24.0
3.3997	438.719777416	21.0
3.4099	439.174815179	20.0
3.4202	439.632270779	34.0
3.4304	440.083270567	33.0
3.4406	440.532274585	31.0
3.4509	440.983664379	36.0
3.4611	441.428683964	30.0
3.4714	441.876068154	39.0
3.4816	442.317138664	36.0
3.4918	442.756257343	37.0
3.5021	443.197709273	21.0
3.5123	443.632931241	35.0
3.5226	444.070465755	33.0
3.5328	444.50182559	34.0
3.543	444.931276568	35.0
3.5533	445.363009427	29.0
3.5635	445.788649484	29.0
3.5738	446.216551173	40.0
3.584	446.638414127	23.0
3.5942	447.058410248	28.0
3.6045	447.480638012	41.0
3.6147	447.896907115	29.0
3.625	448.315388057	42.0
3.6352	448.727963214	35.0
3.6454	449.138712638	40.0
3.6557	449.551644574	32.0
3.6659	449.958749034	27.0
3.6762	450.368016638	31.0
3.6864	450.771508479	27.0
3.6966	451.173214784	36.0
3.7069	451.577055549	23.0
3.7171	451.975197137	39.0
3.7274	452.375454245	23.0
3.7376	452.77006275	22.0
3.7478	453.162925029	33.0
3.7581	453.557874776	34.0
3.7683	453.94725082	32.0
3.7786	454.338695808	23.0
3.7888	454.724616554	27.0
3.799	455.108829519	34.0
3.8093	455.495083995	33.0
3.8195	455.875887478	29.0
3.8298	456.258714356	29.0
3.84	456.636138613	24.0
3.8502	457.011892689	29.0
3.8605	457.389643328	25.0
3.8707	457.762062986	20.0
3.881	458.13646149	33.0
3.8912	458.50557632	25.0
3.9014	458.873057738	23.0
3.9117	459.242491764	25.0
3.9219	459.606712175	21.0
3.9322	459.972867867	23.0
3.9424	460.33385621	24.0
3.9526	460.693247103	25.0
3.9629	461.054547614	30.0
3.9731	461.410749295	39.0
3.9834	461.768843649	30.0
3.9936	462.121884419	21.0
4.0038	462.473362909	28.0
4.0141	462.826708975	26.0
4.0243	463.175068467	30.0
4.0346	463.525278963	24.0
4.0448	463.870547135	32.0
4.055	464.214287422	28.0
4.0653	464.559854169	23.0
4.0755	464.900544127	17.0
4.0858	465.243044337	23.0
4.096	465.580711034	17.0
4.1062	465.916883484	24.0
4.1165	466.254842183	27.0
4.1267	466.58803146	27.0
4.137	466.922991134	30.0
4.1472	467.253223712	20.0
4.1574	467.58199494	27.0
4.1677	467.912513089	25.0
4.1779	468.238366823	19.0
4.1882	468.565951975	25.0
4.1984	468.888914103	26.0
4.2086	469.210447055	28.0
4.2189	469.533688468	20.0
4.2291	469.852368157	13.0
4.2394	470.172741147	36.0
4.2496	470.488592893	26.0
4.2598	470.803046928	25.0
4.2701	471.11917181	24.0
4.2803	471.4308354	23.0
4.2906	471.744155011	22.0
4.3008	472.053052918	25.0
4.311	472.360583887	20.0
4.3213	472.669748917	25.0
4.3315	472.974550875	26.0
4.3418	473.280972394	25.0
4.352	473.58306956	29.0
4.3622	473.883829881	21.0
4.3725	474.186188288	18.0
4.3827	474.484279682	20.0
4.393	474.78395498	18.0
4.4032	475.079401129	21.0
4.4134	475.373539867	23.0
4.4237	475.669241506	19.0
4.4339	475.960770076	26.0
4.4442	476.253847678	21.0
4.4544	476.542789241	22.0
4.4646	476.830452177	23.0
4.4749	477.119643606	28.0
4.4851	477.404753839	20.0
4.4954	477.691379001	29.0
4.5056	477.973959184	34.0
4.5158	478.25528889	20.0
4.5261	478.538113438	22.0
4.5363	478.816946642	30.0
4.5466	479.097261422	31.0
4.5568	479.373620279	22.0
4.567	479.648756188	23.0
4.5773	479.925354029	13.0
4.5875	480.1980484	25.0
4.5978	480.472191728	25.0
4.608	480.742466227	23.0
4.6182	481.011544704	18.0
4.6285	481.282052925	33.0
4.6387	481.548743617	23.0
4.649	481.816851365	27.0
4.6592	482.081175461	16.0
4.6694	482.344329866	20.0
4.6797	482.608882538	22.0
4.6899	482.869701728	18.0
4.7002	483.131906777	34.0
4.7104	483.390411474	20.0
4.7206	483.647772233	12.0
4.7309	483.906500475	19.0
4.7411	484.161577431	25.0
4.7514	484.418009734	26.0
4.7616	484.670823154	27.0
4.7718	484.92251782	23.0
4.7821	485.175549863	18.0
4.7923	485.425011007	25.0
4.8026	485.675797659	26.0
4.8128	485.923045101	25.0
4.823	486.16919842	14.0
4.8333	486.416659672	19.0
4.8435	486.660628642	13.0
4.8538	486.905893938	14.0
4.864	487.147697944	25.0
4.8742	487.388431915	24.0
4.8845	487.630445024	16.0
4.8947	487.869042737	16.0
4.905	488.108908236	27.0
4.9152	488.345388649	16.0
4.9254	488.580822586	28.0
4.9357	488.817507498	16.0
4.9459	489.050852209	14.0
4.9562	489.285436794	14.0
4.9664	489.516710819	23.0
4.9766	489.746961407	28.0
4.9869	489.978435429	18.0
4.9971	490.206642788	16.0
5.0074	490.436062724	23.0
5.0176	490.662244986	26.0
5.0278	490.887426344	19.0
5.0381	491.113804199	16.0
5.0483	491.336987312	20.0
5.0586	491.561356304	19.0
5.0688	491.782558904	21.0
5.079	492.002782636	17.0
5.0893	492.224176523	20.0
5.0995	492.442446003	19.0
5.1098	492.661875255	18.0
5.12	492.878207825	19.0
5.1302	493.093583078	19.0
5.1405	493.310102725	16.0
5.1507	493.523566752	21.0
5.161	493.738165017	13.0
5.1712	493.949734778	15.0
5.1814	494.160368297	13.0
5.1917	494.372121015	18.0
5.2019	494.580885387	13.0
5.2122	494.790759025	23.0
5.2224	494.997670834	14.0
5.2326	495.203667015	26.0
5.2429	495.410757754	19.0
5.2531	495.614925938	23.0
5.2634	495.820178967	18.0
5.2736	496.022535376	16.0
5.2838	496.223996314	18.0
5.2941	496.426527713	17.0
5.3043	496.6262009	20.0
5.3146	496.826935048	21.0
5.3248	497.024836348	14.0
5.335	497.221861893	18.0
5.3453	497.41993433	18.0
5.3555	497.615211483	25.0
5.3658	497.811526238	19.0
5.376	498.005070514	25.0
5.3862	498.197758315	16.0
5.3965	498.39146996	28.0
5.4067	498.582447862	19.0
5.417	498.774440523	16.0
5.4272	498.963723699	24.0
5.4374	499.152169257	22.0
5.4477	499.341616118	19.0
5.4579	499.528389423	20.0
5.4682	499.716155144	27.0
5.4784	499.901271034	12.0
5.4886	500.085567747	16.0
5.4989	500.270843718	17.0
5.5091	500.453504994	19.0
5.5194	500.637136837	12.0
5.5296	500.818177189	23.0
5.5398	500.998416398	16.0
5.5501	501.179613306	21.0
5.5603	501.358253084	27.0
5.5706	501.537842062	19.0
5.5808	501.714896602	22.0
5.591	501.891167638	25.0
5.6013	502.068375288	27.0
5.6115	502.243082106	16.0
5.6218	502.418717226	10.0
5.632	502.591873707	17.0
5.6422	502.764263934	22.0
5.6525	502.937570154	19.0
5.6627	503.108430601	18.0
5.673	503.280198913	19.0
5.6832	503.449543156	14.0
5.6934	503.618138014	17.0
5.7037	503.787628698	31.0
5.7139	503.954727457	16.0
5.7242	504.122714092	21.0
5.7344	504.288330026	13.0
5.7446	504.453213075	12.0
5.7549	504.618972228	12.0
5.7651	504.782392115	20.0
5.7754	504.946680332	16.0
5.7856	505.108650041	23.0
5.7958	505.269903001	14.0
5.8061	505.432012775	15.0
5.8163	505.591834786	9.0
5.8266	505.752506009	8.0
5.8368	505.91090977	19.0
5.847	506.06861256	14.0
5.8573	506.227153302	14.0
5.8675	506.383456648	16.0
5.8778	506.540590509	12.0
5.888	506.695506829	13.0
5.8982	506.849737612	11.0
5.9085	507.004787897	23.0
5.9187	507.157650045	17.0
5.929	507.311324424	11.0
5.9392	507.462830084	19.0
5.9494	507.613665298	13.0
5.9597	507.765301974	17.0
5.9699	507.914798687	9.0
5.9802	508.065089748	8.0
5.9904	508.213259836	9.0
6.0006	508.360774241	10.0
6.0109	508.509072461	22.0
6.0211	508.655277831	10.0
6.0314	508.802260062	6.0
6.0416	508.947168016	10.0
6.0518	509.091434722	10.0
6.0621	509.236467986	10.0
6.0723	509.379454478	13.0
6.0826	509.523200726	10.0
6.0928	509.664918365	11.0
6.103	509.806008874	12.0
6.1133	509.947849064	10.0
6.1235	510.087687544	12.0
6.1338	510.228269054	8.0
6.144	510.366866616	13.0
6.1542	510.504850855	13.0
6.1645	510.643568271	9.0
6.1747	510.780328047	13.0
6.185	510.917814493	11.0
6.1952	511.053360671	6.0
6.2054	511.188307029	3.0
6.2157	511.323970422	10.0
6.2259	511.457719274	8.0
6.2362	511.592178798	12.0
6.2464	511.724740771	8.0
6.2566	511.85671613	9.0
6.2669	511.989392737	5.0
6.2771	512.120196955	5.0
6.2874	512.251696199	5.0
6.2976	512.381339668	6.0
6.3078	512.510409437	11.0
6.3181	512.640165017	9.0
6.3283	512.76808943	16.0
6.3386	512.896693567	3.0
6.3488	513.023482786	7.0
6.359	513.149710936	4.0
6.3693	513.276609798	11.0
6.3795	513.401717808	8.0
6.3898	513.527490577	1.0
6.4	513.651488386	6.0
6.4102	513.774937479	8.0
6.4205	513.899042517	5.0
6.4307	514.02139613	3.0
6.441	514.144399868	6.0
6.4512	514.265667723	5.0
6.4614	514.386398942	3.0
6.4717	514.507771665	7.0
6.4819	514.627431523	5.0
6.4922	514.747727192	4.0
6.5024	514.866325196	5.0
6.5126	514.984398379	7.0
6.5229	515.103098942	3.0
6.5331	515.220124351	2.0
6.5434	515.337771572	4.0
6.5536	515.453758505	5.0
6.5638	515.569232171	3.0
6.5741	515.685319405	6.0
6.5843	515.799768365	4.0
6.5946	515.914825449	6.0
6.6048	516.028258796	2.0
6.615	516.141190177	6.0
6.6253	516.254721617	4.0
6.6355	516.366650852	1.0
6.6458	516.479174821	2.0
6.656	516.590110803	4.0
6.6662	516.70055587	2.0
6.6765	516.811587786	1.0
6.6867	516.92105277	2.0
6.697	517.031099395	2.0
6.7072	517.139592994	1.0
6.7174	517.247606486	1.0
6.7277	517.356193906	2.0
6.7379	517.463248893	2.0
6.7482	517.570872716	1.0
6.7584	517.676977704	2.0
6.7686	517.782613155	4.0
6.7789	517.888809898	2.0
6.7891	517.993507947	1.0
6.7994	518.098762307	1.0
6.8096	518.202531272	3.0
6.8198	518.305841037	5.0
6.8301	518.409699737	3.0
6.8403	518.512092738	4.0
6.8506	518.615029803	5.0
6.8608	518.716514175	5.0
6.871	518.817549457	3.0
6.8813	518.919121589	2.0
6.8915	519.01926029	1.0
6.9018	519.119931077	1.0
6.912	519.219181155	1.0
6.9222	519.317992029	3.0
6.9325	519.417327934	3.0
6.9427	519.515261967	0.0
6.953	519.613716371	4.0
6.9632	519.710781344	1.0
6.9734	519.807416783	0.0
6.9837	519.904565694	0.0
6.9939	520.000343597	0.0
7.0042	520.096630414	0.0
7.0144	520.19155839	3.0
7.0246	520.28606629	0.0
7.0349	520.381076356	2.0
7.0451	520.474745598	1.0
7.0554	520.568912551	1.0
7.0656	520.661750578	1.0
7.0758	520.754177778	4.0
7.0861	520.847096088	1.0
7.0963	520.938703095	0.0
7.1066	521.030796854	0.0
7.1168	521.121590946	0.0
7.127	521.211983254	1.0
7.1373	521.302855861	0.0
7.1475	521.392446034	2.0
7.1578	521.482512244	0.0
7.168	521.571307399	3.0
7.1782	521.659709618	0.0
7.1885	521.74858156	3.0
7.1987	521.836199303	3.0
7.209	521.924282601	0.0
7.2192	522.011122829	1.0
7.2294	522.097578771	2.0
7.2397	522.184494096	0.0
7.2499	522.270182833	2.0
7.2602	522.356326876	0.0
7.2704	522.441255218	1.0
7.2806	522.525807733	2.0
7.2909	522.610809517	1.0
7.3011	522.694611718	2.0
7.3114	522.778859201	0.0
7.3216	522.861917748	1.0
7.3318	522.944608742	0.0
7.3421	523.027739114	0.0
7.3523	523.109696314	1.0
7.3626	523.192088992	0.0
7.3728	523.273318909	1.0
7.383	523.354189367	1.0
7.3933	523.435489528	0.0
7.4035	523.515642346	0.0
7.4138	523.596221055	0.0
7.424	523.675662602	0.0
7.4342	523.754752603	0.0
7.4445	523.834262849	1.0
7.4547	523.91265101	1.0
7.465	523.991455686	0.0
7.4752	524.069148237	2.0
7.4854	524.146496981	0.0
7.4957	524.224256717	0.0
7.5059	524.300919073	1.0
7.5162	524.377988774	0.0
7.5264	524.453970833	0.0
7.5366	524.529616656	1.0
7.5469	524.605664422	2.0
7.5571	524.680638969	1.0
7.5674	524.756011892	0.0
7.5776	524.830321119	1.0
7.5878	524.904301512	1.0
7.5981	524.978674999	0.0
7.6083	525.051998895	1.0
7.6186	525.125712396	2.0
7.6288	525.198385621	0.0
7.639	525.270737251	0.0
7.6493	525.34347332	1.0
7.6595	525.415182906	0.0
7.6698	525.48727352	0.0
7.68	525.55834676	0.0
7.6902	525.629105486	1.0
7.7005	525.700240187	2.0
7.7107	525.770371005	1.0
7.721	525.840874461	3.0
7.7312	525.910382942	0.0
7.7414	525.979583833	1.0
7.7517	526.049152422	1.0
7.7619	526.117739229	0.0
7.7722	526.186690471	0.0
7.7824	526.254668643	0.0
7.7926	526.322345997	0.0
7.8029	526.390382954	1.0
7.8131	526.457459744	0.0
7.8234	526.524892945	0.0
7.8336	526.5913745	1.0
7.8438	526.657561859	1.0
7.8541	526.724100904	0.0
7.8643	526.789700921	1.0
7.8746	526.855649503	0.0
7.8848	526.92066739	0.0
7.895	526.985397559	1.0
7.9053	527.05047167	0.0
7.9155	527.114627428	0.0
7.9258	527.179124076	1.0
7.936	527.242710519	3.0
7.9462	527.306015579	0.0
7.9565	527.36965701	1.0
7.9667	527.432400304	0.0
7.977	527.495476985	1.0
7.9872	527.5576635	0.0
7.9974	527.619574826	1.0
8.0077	527.681815117	0.0
8.0179	527.743177046	0.0
8.0282	527.804865021	1.0
8.0384	527.865682428	0.0
