TL-DOS Lehrstuhlversuch
detector=R1407506
job_number=2015-10-27-005
irradiation_dose [mSv]=0.3

[BEGIN DATA]
time [sec] 	 temperature [K] 	 photoncount 
0.0	132.2496776	0.0
0.0102	133.787233488	0.0
0.0205	135.334155785	0.0
0.0307	136.86042791	0.0
0.041	138.395997706	1.0
0.0512	139.911068877	1.0
0.0614	141.420597553	3.0
0.0717	142.939321904	2.0
0.0819	144.437772503	0.0
0.0922	145.945351292	2.0
0.1024	147.432805113	1.0
0.1126	148.91481747	1.0
0.1229	150.405857879	1.0
0.1331	151.876994094	0.0
0.1434	153.357092107	1.0
0.1536	154.817431998	2.0
0.1638	156.272429615	0.0
0.1741	157.736290717	0.0
0.1843	159.180610446	0.0
0.1946	160.633728614	0.0
0.2048	162.06744882	0.0
0.215	163.495924132	2.0
0.2253	164.933101362	1.0
0.2355	166.351093428	0.0
0.2458	167.777723551	0.0
0.256	169.185309306	0.0
0.2662	170.587745773	1.0
0.2765	171.998725536	0.0
0.2867	173.390869851	0.0
0.297	174.791494764	0.0
0.3072	176.173422457	0.0
0.3174	177.550294727	1.0
0.3277	178.935554562	0.0
0.3379	180.302322288	1.0
0.3482	181.677416025	0.0
0.3584	183.034153363	0.0
0.3686	184.38592743	0.0
0.3789	185.745936169	0.0
0.3891	187.087789883	0.0
0.3994	188.437817836	0.0
0.4096	189.769824	0.0
0.4198	191.096957364	0.0
0.4301	192.432175296	0.0
0.4403	193.749569139	0.0
0.4506	195.074988219	0.0
0.4608	196.382714018	0.0
0.471	197.685655841	0.0
0.4813	198.996534862	0.0
0.4915	200.2899147	0.0
0.5018	201.591173488	0.0
0.512	202.875061514	0.0
0.5222	204.154252769	0.0
0.5325	205.44123654	0.0
0.5427	206.71104011	1.0
0.553	207.988579009	0.0
0.5632	209.249063788	0.0
0.5734	210.504937411	0.0
0.5837	211.768461504	0.0
0.5939	213.015118564	0.0
0.6042	214.26936995	0.0
0.6144	215.506878086	0.0
0.6246	216.739859119	0.0
0.6349	217.980351167	0.0
0.6451	219.204283642	0.0
0.6554	220.435672009	0.0
0.6656	221.65062233	0.0
0.6758	222.86112807	1.0
0.6861	224.079007911	0.0
0.6963	225.280630033	0.0
0.7066	226.489572139	0.0
0.7168	227.682375837	0.0
0.727	228.870815973	0.0
0.7373	230.066495792	0.0
0.7475	231.246214244	0.0
0.7578	232.433119248	0.0
0.768	233.604180022	0.0
0.7782	234.770956775	0.0
0.7885	235.944841242	0.0
0.7987	237.103055293	0.0
0.809	238.268324897	0.0
0.8192	239.418039086	0.0
0.8294	240.563547345	0.0
0.8397	241.716033756	0.0
0.8499	242.853135397	0.0
0.8602	243.99716398	0.0
0.8704	245.125920699	0.0
0.8806	246.250548154	0.0
0.8909	247.382026561	0.0
0.9011	248.498400639	0.0
0.9114	249.621575391	0.0
0.9216	250.72975666	0.0
0.9318	251.833883937	0.0
0.9421	252.944737283	0.0
0.9523	254.040761627	1.0
0.9626	255.14346268	0.0
0.9728	256.231443559	0.0
0.983	257.315444342	0.0
0.9933	258.406048589	0.0
1.0035	259.482094144	2.0
1.0138	260.564694702	0.0
1.024	261.632843411	1.0
1.0342	262.697084574	0.0
1.0445	263.767808832	0.0
1.0547	264.824239779	0.0
1.065	265.887106241	0.0
1.0752	266.935784289	0.0
1.0854	267.98062602	1.0
1.0957	269.031832669	0.0
1.1059	270.069006551	0.0
1.1162	271.11249864	0.0
1.1264	272.142060946	0.0
1.1366	273.167856866	0.0
1.1469	274.19990168	0.0
1.1571	275.218169524	0.0
1.1674	276.242640402	0.0
1.1776	277.253435417	0.0
1.1878	278.2605327	0.0
1.1981	279.27376497	0.0
1.2083	280.273471402	2.0
1.2186	281.279267798	1.0
1.2288	282.271637618	0.0
1.239	283.260377112	0.0
1.2493	284.255139761	0.0
1.2595	285.236623126	3.0
1.2698	286.224085445	1.0
1.28	287.198365934	0.0
1.2902	288.169082271	0.0
1.3005	289.145711971	0.0
1.3107	290.109304447	1.0
1.321	291.07876689	1.0
1.3312	292.035287788	0.0
1.3414	292.988309501	1.0
1.3517	293.947136787	1.0
1.3619	294.893164497	1.0
1.3722	295.844955174	1.0
1.3824	296.784040209	0.0
1.3926	297.719689845	1.0
1.4029	298.661039226	1.0
1.4131	299.589822348	0.0
1.4234	300.524263387	0.0
1.4336	301.446230387	0.0
1.4438	302.364824611	0.0
1.4541	303.289014682	0.0
1.4643	304.200867558	0.0
1.4746	305.118275215	0.0
1.4848	306.023436215	1.0
1.495	306.925285919	1.0
1.5053	307.832629468	0.0
1.5155	308.727860708	1.0
1.5258	309.628545476	2.0
1.536	310.517206823	0.0
1.5462	311.402617234	0.0
1.5565	312.293421346	2.0
1.5667	313.172333937	0.0
1.577	314.056600646	0.0
1.5872	314.929063103	0.0
1.5974	315.798333883	0.0
1.6077	316.672900045	1.0
1.6179	317.535791451	0.0
1.6282	318.403939377	1.0
1.6384	319.260498224	1.0
1.6486	320.113923573	0.0
1.6589	320.972547778	1.0
1.6691	321.819710038	0.0
1.6794	322.672033001	3.0
1.6896	323.512978136	3.0
1.6998	324.350846891	0.0
1.7101	325.193819735	1.0
1.7203	326.025539568	0.0
1.7306	326.862326031	0.0
1.7408	327.687942067	1.0
1.751	328.510537801	0.0
1.7613	329.338144584	1.0
1.7715	330.15470348	1.0
1.7818	330.97623665	2.0
1.792	331.786803012	4.0
1.8022	332.594404127	2.0
1.8125	333.406924947	0.0
1.8227	334.208599267	2.0
1.833	335.015157187	0.0
1.8432	335.810948207	1.0
1.8534	336.603828031	1.0
1.8637	337.401537883	1.0
1.8739	338.188598948	2.0
1.8842	338.980454594	1.0
1.8944	339.761739602	2.0
1.9046	340.540166482	3.0
1.9149	341.323335345	1.0
1.9251	342.096049532	1.0
1.9354	342.873470903	1.0
1.9456	343.640514321	2.0
1.9558	344.40475171	4.0
1.9661	345.173644645	1.0
1.9763	345.932273475	3.0
1.9866	346.695523684	1.0
1.9968	347.448585114	5.0
2.007	348.198891665	2.0
2.0173	348.953768898	2.0
2.0275	349.698569125	4.0
2.0378	350.44790649	2.0
2.048	351.187240802	2.0
2.0582	351.923870452	4.0
2.0685	352.664987467	4.0
2.0787	353.396211164	7.0
2.089	354.131889295	4.0
2.0992	354.857746712	8.0
2.1094	355.580948769	1.0
2.1197	356.308556393	3.0
2.1299	357.02645104	2.0
2.1402	357.748718922	2.0
2.1504	358.461345107	1.0
2.1606	359.171364335	4.0
2.1709	359.885708823	7.0
2.1811	360.590517386	5.0
2.1914	361.299619468	7.0
2.2016	361.999255605	7.0
2.2118	362.696332306	8.0
2.2221	363.397655425	8.0
2.2323	364.089616442	6.0
2.2426	364.785792715	10.0
2.2528	365.472675593	4.0
2.263	366.157045688	9.0
2.2733	366.845584796	11.0
2.2835	367.524932459	11.0
2.2938	368.20841854	7.0
2.304	368.882780629	7.0
2.3142	369.554675741	16.0
2.3245	370.23066387	11.0
2.3347	370.8976281	9.0
2.345	371.568655311	6.0
2.3552	372.230724847	8.0
2.3654	372.890372373	10.0
2.3757	373.554038309	8.0
2.3859	374.208844836	17.0
2.3962	374.867640283	19.0
2.4064	375.517641339	16.0
2.4166	376.165264534	11.0
2.4269	376.81683289	19.0
2.4371	377.459703331	11.0
2.4474	378.106489979	15.0
2.4576	378.744642544	20.0
2.4678	379.380460593	19.0
2.4781	380.020151888	12.0
2.4883	380.651303818	20.0
2.4986	381.286300569	24.0
2.5088	381.912820622	20.0
2.519	382.537048715	23.0
2.5293	383.16507945	17.0
2.5395	383.784726478	30.0
2.5498	384.408148243	24.0
2.56	385.023247827	18.0
2.5702	385.636097229	19.0
2.5805	386.252679958	21.0
2.5907	386.861031802	22.0
2.601	387.473089574	25.0
2.6112	388.076976866	22.0
2.6214	388.678654993	25.0
2.6317	389.283998394	28.0
2.6419	389.881260946	19.0
2.6522	390.482161874	41.0
2.6624	391.075041256	27.0
2.6726	391.665751743	32.0
2.6829	392.260060691	33.0
2.6931	392.846436092	30.0
2.7034	393.436383546	28.0
2.7136	394.018455675	33.0
2.7238	394.598398445	33.0
2.7341	395.181874082	35.0
2.7443	395.757560787	42.0
2.7546	396.336754432	41.0
2.7648	396.908216307	32.0
2.775	397.477587638	39.0
2.7853	398.050427437	40.0
2.7955	398.615620284	46.0
2.8058	399.184256146	35.0
2.816	399.745301175	45.0
2.8262	400.304293767	53.0
2.8365	400.866691603	48.0
2.8467	401.421581879	49.0
2.857	401.979852409	47.0
2.8672	402.530670475	40.0
2.8774	403.079473516	32.0
2.8877	403.63161973	36.0
2.8979	404.176395234	36.0
2.9082	404.724489375	52.0
2.9184	405.2652669	38.0
2.9286	405.80406613	38.0
2.9389	406.346147591	32.0
2.9491	406.8809927	38.0
2.9594	407.419095953	35.0
2.9696	407.950015958	45.0
2.9798	408.478993731	37.0
2.9901	409.011193905	28.0
3.0003	409.536289634	35.0
3.0106	410.064584115	49.0
3.0208	410.585826289	46.0
3.031	411.105161634	33.0
3.0413	411.627660641	27.0
3.0515	412.143184705	28.0
3.0618	412.661849215	23.0
3.072	413.173589968	25.0
3.0822	413.683458652	28.0
3.0925	414.196433329	42.0
3.1027	414.702560205	23.0
3.113	415.211770281	31.0
3.1232	415.71418281	24.0
3.1334	416.214757394	33.0
3.1437	416.718381354	26.0
3.1539	417.215282338	24.0
3.1642	417.71521032	25.0
3.1744	418.208464664	21.0
3.1846	418.699914566	32.0
3.1949	419.194358258	28.0
3.2051	419.682201523	20.0
3.2154	420.173016609	29.0
3.2256	420.657279707	23.0
3.2358	421.139771254	22.0
3.2461	421.62520202	20.0
3.2563	422.104152674	20.0
3.2666	422.586020978	20.0
3.2768	423.061456726	28.0
3.287	423.535153215	30.0
3.2973	424.011735346	17.0
3.3075	424.481955488	24.0
3.3178	424.955040095	23.0
3.328	425.421809401	28.0
3.3382	425.886871153	25.0
3.3485	426.354765946	24.0
3.3587	426.816414719	21.0
3.369	427.280875742	24.0
3.3792	427.739136582	23.0
3.3894	428.195720995	28.0
3.3997	428.655086806	36.0
3.4099	429.108320452	26.0
3.4202	429.564315085	37.0
3.4304	430.014222555	26.0
3.4406	430.462484156	31.0
3.4509	430.913476456	28.0
3.4611	431.358448369	27.0
3.4714	431.806130942	24.0
3.4816	432.247837311	29.0
3.4918	432.687927812	33.0
3.5021	433.130699235	37.0
3.5123	433.567560015	32.0
3.5226	434.007082043	29.0
3.5328	434.440736804	33.0
3.543	434.872805151	35.0
3.5533	435.307505552	40.0
3.5635	435.736403051	34.0
3.5738	436.167913287	44.0
3.584	436.593663208	32.0
3.5942	437.017855633	32.0
3.6045	437.444632134	31.0
3.6147	437.86571151	52.0
3.625	438.289355998	41.0
3.6352	438.707345171	40.0
3.6454	439.123805239	53.0
3.6557	439.542802279	41.0
3.6659	439.956206045	45.0
3.6762	440.372128164	41.0
3.6864	440.782498056	36.0
3.6966	441.191366716	52.0
3.7069	441.602726103	38.0
3.7171	442.008594172	52.0
3.7274	442.416934689	46.0
3.7376	442.819824187	43.0
3.7478	443.221239818	51.0
3.7581	443.625100775	45.0
3.7683	444.023570511	46.0
3.7786	444.424467626	49.0
3.7888	444.820013086	47.0
3.799	445.214111546	46.0
3.8093	445.610610756	49.0
3.8195	446.001817019	57.0
3.8298	446.395406414	60.0
3.84	446.783741707	41.0
3.8502	447.170656375	43.0
3.8605	447.559928032	45.0
3.8707	447.944003224	49.0
3.881	448.330418107	49.0
3.8912	448.711674661	59.0
3.9014	449.091536487	41.0
3.9117	449.473712338	47.0
3.9219	449.850786447	40.0
3.9322	450.230157598	51.0
3.9424	450.604464449	54.0
3.9526	450.977401995	47.0
3.9629	451.352611384	43.0
3.9731	451.722812029	38.0
3.9834	452.095267844	45.0
3.9936	452.462751673	62.0
4.0038	452.828891158	49.0
4.0141	453.197261074	38.0
4.0243	453.560713546	40.0
4.0346	453.926380081	50.0
4.0448	454.287165262	44.0
4.055	454.646630603	43.0
4.0653	455.008285718	48.0
4.0755	455.365113027	59.0
4.0858	455.72411404	34.0
4.096	456.078322677	50.0
4.1062	456.431235534	32.0
4.1165	456.786298248	41.0
4.1267	457.13662116	28.0
4.137	457.489078153	43.0
4.1472	457.836830127	32.0
4.1574	458.183309941	37.0
4.1677	458.531900424	44.0
4.1779	458.875837503	36.0
4.1882	459.221869762	41.0
4.1984	459.563282768	22.0
4.2086	459.903446803	41.0
4.2189	460.245683033	40.0
4.2291	460.583350684	31.0
4.2394	460.923075323	32.0
4.2496	461.25826491	27.0
4.2598	461.592228293	27.0
4.2701	461.928226098	38.0
4.2803	462.259738602	32.0
4.2906	462.593270597	34.0
4.3008	462.922350209	34.0
4.311	463.250225967	34.0
4.3213	463.580099064	34.0
4.3315	463.90556862	39.0
4.3418	464.233020855	47.0
4.352	464.556101865	38.0
4.3622	464.878000968	42.0
4.3725	465.201861	31.0
4.3827	465.52139776	39.0
4.393	465.84288106	31.0
4.4032	466.160072815	27.0
4.4134	466.476104206	32.0
4.4237	466.794060782	40.0
4.4339	467.107772893	34.0
4.4442	467.42339606	48.0
4.4544	467.734805911	35.0
4.4646	468.04507655	49.0
4.4749	468.357237281	33.0
4.4851	468.665230916	34.0
4.4954	468.975100773	38.0
4.5056	469.280834115	29.0
4.5158	469.585449011	34.0
4.5261	469.891919546	41.0
4.5363	470.194298944	29.0
4.5466	470.498520363	35.0
4.5568	470.798680671	40.0
4.567	471.097742919	38.0
4.5773	471.398626981	35.0
4.5875	471.695494482	35.0
4.5978	471.994170426	34.0
4.608	472.288859285	38.0
4.6182	472.582470102	49.0
4.6285	472.877869524	25.0
4.6387	473.1693256	28.0
4.649	473.462557154	38.0
4.6592	473.751874302	44.0
4.6694	474.040133058	37.0
4.6797	474.330147815	31.0
4.6899	474.616291108	35.0
4.7002	474.904177515	25.0
4.7104	475.188220869	36.0
4.7206	475.471225124	37.0
4.7309	475.755953372	45.0
4.7411	476.036880725	36.0
4.7514	476.319519418	40.0
4.7616	476.598385111	37.0
4.7718	476.876230647	39.0
4.7821	477.155768748	47.0
4.7923	477.431575241	30.0
4.8026	477.709061878	35.0
4.8128	477.98284429	36.0
4.823	478.255625142	36.0
4.8333	478.530067706	41.0
4.8435	478.800846682	32.0
4.8538	479.073275177	46.0
4.864	479.342066969	28.0
4.8742	479.609875457	33.0
4.8845	479.879315368	45.0
4.8947	480.145158472	30.0
4.905	480.412621026	33.0
4.9152	480.67651317	32.0
4.9254	480.939439932	39.0
4.9357	481.20396838	40.0
4.9459	481.464965584	38.0
4.9562	481.727552719	30.0
4.9664	481.986634527	31.0
4.9766	482.244768551	35.0
4.9869	482.504475063	37.0
4.9971	482.760714702	30.0
5.0074	483.018515289	23.0
5.0176	483.272874445	33.0
5.0278	483.526303094	47.0
5.0381	483.781275567	36.0
5.0483	484.032844363	35.0
5.0586	484.285945653	37.0
5.0688	484.535668244	32.0
5.079	484.78447729	34.0
5.0893	485.034802018	29.0
5.0995	485.281785113	42.0
5.1098	485.530272767	34.0
5.12	485.77544331	28.0
5.1302	486.019716961	38.0
5.1405	486.265478666	32.0
5.1507	486.507959649	39.0
5.161	486.751917767	34.0
5.1712	486.992619239	43.0
5.1814	487.232440167	30.0
5.1917	487.473722025	36.0
5.2019	487.711782964	32.0
5.2122	487.951294111	36.0
5.2224	488.187607976	25.0
5.2326	488.423057348	23.0
5.2429	488.65994102	24.0
5.2531	488.893662484	39.0
5.2634	489.128807722	35.0
5.2736	489.360813959	40.0
5.2838	489.591971462	29.0
5.2941	489.824537119	28.0
5.3043	490.053998211	32.0
5.3146	490.284857123	32.0
5.3248	490.512634254	35.0
5.335	490.739578121	27.0
5.3453	490.967904474	35.0
5.3555	491.193182853	46.0
5.3658	491.419833573	36.0
5.376	491.643458687	39.0
5.3862	491.866265726	34.0
5.3965	492.090430051	23.0
5.4067	492.311601962	38.0
5.417	492.534121197	38.0
5.4272	492.753669979	24.0
5.4374	492.972415599	30.0
5.4477	493.192493763	29.0
5.4579	493.40963406	31.0
5.4682	493.628097122	33.0
5.4784	493.843643877	28.0
5.4886	494.05840211	27.0
5.4989	494.274468597	22.0
5.5091	494.48765077	23.0
5.5194	494.702131596	45.0
5.5296	494.913749275	39.0
5.5398	495.124592805	25.0
5.5501	495.336720742	33.0
5.5603	495.546016942	17.0
5.5706	495.756588121	30.0
5.5808	495.964348345	29.0
5.591	496.171348531	26.0
5.6013	496.379609712	21.0
5.6115	496.585090772	41.0
5.6218	496.791823572	31.0
5.632	496.995796656	29.0
5.6422	497.199023556	31.0
5.6525	497.403488465	23.0
5.6627	497.605223931	30.0
5.673	497.808188319	36.0
5.6832	498.008443296	44.0
5.6934	498.207965692	40.0
5.7037	498.408703529	34.0
5.7139	498.606761676	31.0
5.7242	498.806026345	28.0
5.7344	499.00263099	32.0
5.7446	499.198516408	39.0
5.7549	499.395595112	33.0
5.7651	499.590042973	27.0
5.7754	499.785675362	26.0
5.7856	499.978696216	41.0
5.7958	500.171010953	26.0
5.8061	500.364497223	29.0
5.8163	500.555400608	31.0
5.8266	500.747466928	24.0
5.8368	500.936969317	19.0
5.847	501.12577846	25.0
5.8573	501.315737782	37.0
5.8675	501.5031613	34.0
5.8778	501.691726555	47.0
5.888	501.877774615	34.0
5.8982	502.063142067	26.0
5.9085	502.249638731	32.0
5.9187	502.433645814	20.0
5.929	502.618773823	30.0
5.9392	502.801430522	26.0
5.9494	502.983419018	31.0
5.9597	503.166516143	36.0
5.9699	503.347169069	33.0
5.9802	503.528922487	25.0
5.9904	503.708249643	29.0
6.0006	503.886920776	28.0
6.0109	504.066680331	29.0
6.0211	504.244040239	35.0
6.0314	504.42248058	29.0
6.0416	504.598538885	38.0
6.0518	504.773953127	23.0
6.0621	504.950435949	25.0
6.0723	505.124562867	28.0
6.0826	505.299750523	27.0
6.0928	505.472599564	36.0
6.103	505.644816282	27.0
6.1133	505.818082101	23.0
6.1235	505.989034961	34.0
6.1338	506.161029223	20.0
6.144	506.3307275	22.0
6.1542	506.499804979	24.0
6.1645	506.669912437	24.0
6.1747	506.837749096	20.0
6.185	507.006608175	35.0
6.1952	507.173213121	24.0
6.2054	507.339208585	27.0
6.2157	507.506215253	21.0
6.2259	507.670992516	18.0
6.2362	507.836773561	19.0
6.2464	508.000341562	22.0
6.2566	508.163311192	26.0
6.2669	508.327273592	23.0
6.2771	508.489047226	22.0
6.2874	508.651806345	21.0
6.2976	508.81239276	23.0
6.3078	508.972391712	11.0
6.3181	509.133365337	20.0
6.3283	509.292190094	18.0
6.3386	509.451982371	27.0
6.3488	509.60964155	17.0
6.359	509.766723974	13.0
6.3693	509.924763305	12.0
6.3795	510.080692937	14.0
6.3898	510.237572455	18.0
6.4	510.392357756	21.0
6.4102	510.546576816	17.0
6.4205	510.70173534	18.0
6.4307	510.854822622	17.0
6.441	511.008842474	15.0
6.4512	511.160806284	13.0
6.4614	511.312214174	12.0
6.4717	511.464544404	13.0
6.4819	511.614841147	12.0
6.4922	511.766053461	20.0
6.5024	511.915247211	13.0
6.5126	512.063895175	14.0
6.5229	512.213448666	9.0
6.5331	512.361005737	18.0
6.5434	512.509461689	11.0
6.5536	512.655935874	13.0
6.5638	512.801874221	9.0
6.5741	512.948701588	8.0
6.5843	513.093568927	14.0
6.5946	513.239318762	10.0
6.6048	513.383122954	8.0
6.615	513.526401076	10.0
6.6253	513.670552012	11.0
6.6355	513.812778649	9.0
6.6458	513.955871696	12.0
6.656	514.097054565	7.0
6.6662	514.237720953	11.0
6.6765	514.379244246	8.0
6.6867	514.518878316	7.0
6.697	514.659363003	5.0
6.7072	514.797972331	5.0
6.7174	514.936074594	10.0
6.7277	515.075018141	8.0
6.7379	515.212106903	10.0
6.7482	515.350030776	9.0
6.7584	515.486113476	8.0
6.7686	515.621698353	8.0
6.7789	515.758109179	6.0
6.7891	515.89269903	6.0
6.7994	516.028108769	8.0
6.8096	516.161710897	5.0
6.8198	516.294824276	6.0
6.8301	516.428748549	3.0
6.8403	516.56088504	4.0
6.8506	516.693826473	5.0
6.8608	516.824993246	3.0
6.871	516.955680178	3.0
6.8813	517.087163223	7.0
6.8915	517.216891075	8.0
6.9018	517.347409197	5.0
6.912	517.476185006	2.0
6.9222	517.604489723	5.0
6.9325	517.73357604	3.0
6.9427	517.860939159	8.0
6.953	517.989078142	7.0
6.9632	518.115506572	4.0
6.9734	518.241472496	3.0
6.9837	518.368205774	5.0
6.9939	518.493247265	5.0
7.0042	518.619050477	5.0
7.0144	518.743174317	5.0
7.0246	518.866844082	4.0
7.0349	518.991267213	5.0
7.0451	519.114029394	4.0
7.0554	519.237539413	2.0
7.0656	519.359400672	2.0
7.0758	519.480816133	2.0
7.0861	519.602971227	4.0
7.0963	519.723495648	1.0
7.1066	519.844754274	1.0
7.1168	519.964394195	5.0
7.127	520.083596444	5.0
7.1373	520.203524844	3.0
7.1475	520.321852296	2.0
7.1578	520.44090057	3.0
7.168	520.558359644	4.0
7.1782	520.675389025	0.0
7.1885	520.79313132	1.0
7.1987	520.909301849	3.0
7.209	521.026180061	0.0
7.2192	521.141498042	1.0
7.2294	521.256394163	2.0
7.2397	521.371990202	4.0
7.2499	521.486043127	2.0
7.2602	521.600790834	2.0
7.2704	521.714006751	3.0
7.2806	521.826808497	2.0
7.2909	521.940297403	3.0
7.3011	522.052271323	0.0
7.3114	522.164927361	2.0
7.3216	522.276079531	1.0
7.3318	522.386825079	2.0
7.3421	522.498245262	2.0
7.3523	522.608178075	0.0
7.3626	522.718780572	1.0
7.3728	522.827906614	0.0
7.383	522.936633446	2.0
7.3933	523.046022615	2.0
7.4035	523.153951527	1.0
7.4138	523.262537915	1.0
7.424	523.369674762	0.0
7.4342	523.476419676	1.0
7.4445	523.583814854	1.0
7.4547	523.689776392	3.0
7.465	523.796383422	0.0
7.4752	523.901567334	3.0
7.4854	524.006366457	1.0
7.4957	524.111803991	0.0
7.5059	524.215834018	3.0
7.5162	524.320497771	2.0
7.5264	524.423764346	1.0
7.5366	524.526653147	3.0
7.5469	524.630168721	0.0
7.5571	524.732302446	1.0
7.5674	524.835058344	2.0
7.5776	524.936442533	1.0
7.5878	525.037455834	1.0
7.5981	525.139084483	2.0
7.6083	525.239356471	1.0
7.6186	525.340239292	2.0
7.6288	525.439775407	1.0
7.639	525.538947396	1.0
7.6493	525.638723515	1.0
7.6595	525.737167704	1.0
7.6698	525.83621159	1.0
7.68	525.93393332	4.0
7.6902	526.03129756	2.0
7.7005	526.129254919	1.0
7.7107	526.225904626	2.0
7.721	526.323143098	1.0
7.7312	526.419083516	2.0
7.7414	526.51467296	2.0
7.7517	526.610844711	0.0
7.7619	526.705732647	1.0
7.7722	526.801198616	1.0
7.7824	526.895390191	1.0
7.7926	526.989237191	1.0
7.8029	527.083655883	1.0
7.8131	527.176814162	1.0
7.8234	527.270539937	0.0
7.8336	527.363014549	0.0
7.8438	527.455150867	0.0
7.8541	527.547848456	0.0
7.8643	527.639308606	1.0
7.8746	527.731325909	1.0
7.8848	527.822114855	1.0
7.895	527.912571674	3.0
7.9053	528.003579532	0.0
7.9155	528.093372509	2.0
7.9258	528.183712482	1.0
7.936	528.272846489	1.0
7.9462	528.361654423	1.0
7.9565	528.451003352	1.0
7.9667	528.539159545	1.0
7.977	528.627852764	0.0
7.9872	528.715361999	0.0
7.9974	528.802551104	0.0
8.0077	528.890271344	1.0
8.0179	528.976820589	2.0
