TL-DOS Lehrstuhlversuch
detector=R1406806
job_number=2015-10-21-013
irradiation_dose [mSv]=3.0

[BEGIN DATA]
time [sec] 	 temperature [K] 	 photoncount 
0.0	101.329385582	0.0
0.0102	103.440688011	0.0
0.0205	105.562518577	2.0
0.0307	107.653724658	1.0
0.041	109.755358664	1.0
0.0512	111.826659683	1.0
0.0614	113.888127421	1.0
0.0717	115.959874791	0.0
0.0819	118.00172053	1.0
0.0922	120.053748056	0.0
0.1024	122.076158567	0.0
0.1126	124.0889679	2.0
0.1229	126.111814227	2.0
0.1331	128.105464714	0.0
0.1434	130.109056659	2.0
0.1536	132.083730663	1.0
0.1638	134.049030113	1.0
0.1741	136.024129646	0.0
0.1843	137.97072247	1.0
0.1946	139.927022097	0.0
0.2048	141.855086355	2.0
0.215	143.773997333	2.0
0.2253	145.702477076	1.0
0.2355	147.603122976	0.0
0.2458	149.513246561	0.0
0.256	151.395801239	0.0
0.2662	153.269418689	0.0
0.2765	155.152379045	1.0
0.2867	157.008162541	0.0
0.297	158.873200013	0.0
0.3072	160.711319308	0.0
0.3174	162.540712327	0.0
0.3277	164.379227725	0.0
0.3379	166.191207739	0.0
0.3482	168.0122233	1.0
0.3584	169.806956055	1.0
0.3686	171.593168507	0.0
0.3789	173.388288014	1.0
0.3891	175.157498474	0.0
0.3994	176.935531207	0.0
0.4096	178.687901507	0.0
0.4198	180.431952616	0.0
0.4301	182.18470054	0.0
0.4403	183.912150967	0.0
0.4506	185.64821543	0.0
0.4608	187.359223189	0.0
0.471	189.06210812	1.0
0.4813	190.77348459	0.0
0.4915	192.460160679	1.0
0.5018	194.15524748	0.0
0.512	195.825869009	0.0
0.5222	197.488559441	1.0
0.5325	199.159540979	0.0
0.5427	200.806405158	0.0
0.553	202.461481524	0.0
0.5632	204.092670091	0.0
0.5734	205.716114765	0.0
0.5837	207.347654843	0.0
0.5939	208.955646822	0.0
0.6042	210.571657151	0.0
0.6144	212.164343523	0.0
0.6246	213.749468786	0.0
0.6349	215.342498371	0.0
0.6451	216.912535682	1.0
0.6554	218.490402079	0.0
0.6656	220.045495052	0.0
0.6758	221.593205387	0.0
0.6861	223.148633472	1.0
0.6963	224.681611988	0.0
0.7066	226.222234793	0.0
0.7168	227.740621713	1.0
0.727	229.251800253	0.0
0.7373	230.770514376	1.0
0.7475	232.267308823	0.0
0.7578	233.771567126	0.0
0.768	235.254114394	0.0
0.7782	236.729623427	0.0
0.7885	238.212490175	0.0
0.7987	239.673954634	0.0
0.809	241.142706774	0.0
0.8192	242.590260341	0.0
0.8294	244.030941802	0.0
0.8397	245.478807308	0.0
0.8499	246.9057757	0.0
0.8602	248.339859756	0.0
0.8704	249.753245606	1.0
0.8806	251.159921557	0.0
0.8909	252.573611982	0.0
0.9011	253.966898543	0.0
0.9114	255.367132812	2.0
0.9216	256.747157431	0.0
0.9318	258.12063053	0.0
0.9421	259.500952536	2.0
0.9523	260.861352285	1.0
0.9626	262.22853575	0.0
0.9728	263.575986589	1.0
0.983	264.917040548	1.0
0.9933	266.264781754	0.0
1.0035	267.593070944	0.0
1.0138	268.927983729	1.0
1.024	270.243629651	0.0
1.0342	271.553029685	0.0
1.0445	272.86895912	2.0
1.0547	274.165895682	0.0
1.065	275.469299495	0.0
1.0752	276.753891217	0.0
1.0854	278.032384477	0.0
1.0957	279.31725302	1.0
1.1059	280.583576993	1.0
1.1162	281.856215566	0.0
1.1264	283.110486084	1.0
1.1366	284.358802086	1.0
1.1469	285.613342891	0.0
1.1571	286.849776846	2.0
1.1674	288.092376354	0.0
1.1776	289.317041363	0.0
1.1878	290.535892404	1.0
1.1981	291.76082132	0.0
1.2083	292.968070776	3.0
1.2186	294.181340254	0.0
1.2288	295.377098554	1.0
1.239	296.567180119	1.0
1.2493	297.763196098	3.0
1.2595	298.941949918	1.0
1.2698	300.126581666	0.0
1.28	301.294115565	2.0
1.2902	302.456106722	1.0
1.3005	303.623892217	1.0
1.3107	304.774823007	5.0
1.321	305.931492982	6.0
1.3312	307.071468683	7.0
1.3414	308.20603247	3.0
1.3517	309.346253828	1.0
1.3619	310.470018315	5.0
1.3722	311.599386522	3.0
1.3824	312.712454501	3.0
1.3926	313.820238309	7.0
1.4029	314.933546147	3.0
1.4131	316.030785558	4.0
1.4234	317.13349642	8.0
1.4336	318.220291802	1.0
1.4438	319.301927738	5.0
1.4541	320.388957317	7.0
1.4643	321.460297745	7.0
1.4746	322.536980476	5.0
1.4848	323.598123392	2.0
1.495	324.654228645	4.0
1.5053	325.715600231	11.0
1.5155	326.761652988	10.0
1.5258	327.81292195	9.0
1.536	328.849017896	5.0
1.5462	329.880195086	13.0
1.5565	330.916514304	14.0
1.5667	331.937876275	19.0
1.577	332.964331329	15.0
1.5872	333.975971507	11.0
1.5974	334.982809031	13.0
1.6077	335.99466721	12.0
1.6179	336.991921191	24.0
1.6282	337.994148039	21.0
1.6384	338.981909697	25.0
1.6486	339.964982062	21.0
1.6589	340.952956577	11.0
1.6691	341.926671606	17.0
1.6794	342.905242125	18.0
1.6896	343.869688887	23.0
1.6998	344.82955704	19.0
1.7101	345.794211634	25.0
1.7203	346.744943321	25.0
1.7306	347.700415888	41.0
1.7408	348.642098073	33.0
1.751	349.579309722	31.0
1.7613	350.521194833	43.0
1.7715	351.44948567	52.0
1.7818	352.382405485	45.0
1.792	353.301860422	41.0
1.8022	354.216950345	49.0
1.8125	355.136603419	51.0
1.8227	356.042983095	56.0
1.833	356.953882488	48.0
1.8432	357.851634825	61.0
1.8534	358.745125178	63.0
1.8637	359.643070975	69.0
1.8739	360.528056676	79.0
1.8842	361.417455411	71.0
1.8944	362.294017411	94.0
1.9046	363.166418026	95.0
1.9149	364.043168919	91.0
1.9251	364.907265623	107.0
1.9354	365.775671197	84.0
1.9456	366.631543031	104.0
1.9558	367.483351705	122.0
1.9661	368.339407974	120.0
1.9763	369.18310874	124.0
1.9866	370.031016671	109.0
1.9968	370.866686706	160.0
2.007	371.698389485	162.0
2.0173	372.534239601	158.0
2.0275	373.358025851	157.0
2.0378	374.185919961	191.0
2.048	375.001865034	188.0
2.0582	375.813936494	200.0
2.0685	376.630057398	205.0
2.0787	377.434399189	196.0
2.089	378.242751879	229.0
2.0992	379.039437574	243.0
2.1094	379.832341089	226.0
2.1197	380.629198465	243.0
2.1299	381.414554759	235.0
2.1402	382.20382728	278.0
2.1504	382.981708191	268.0
2.1606	383.755896196	311.0
2.1709	384.533944736	301.0
2.1811	385.300763663	320.0
2.1914	386.071406378	364.0
2.2016	386.83092637	352.0
2.2118	387.586840621	362.0
2.2221	388.346524284	365.0
2.2323	389.095243395	370.0
2.2426	389.847696039	405.0
2.2528	390.589288497	393.0
2.263	391.327360324	436.0
2.2733	392.06911259	467.0
2.2835	392.80015911	492.0
2.2938	393.534851037	468.0
2.304	394.258939119	462.0
2.3142	394.97958967	499.0
2.3245	395.703833789	504.0
2.3347	396.417624856	534.0
2.345	397.134975286	561.0
2.3552	397.841972161	538.0
2.3654	398.545612644	555.0
2.3757	399.252761873	574.0
2.3859	399.949704782	588.0
2.3962	400.650123039	546.0
2.4064	401.340432125	553.0
2.4166	402.027464041	580.0
2.4269	402.717921884	545.0
2.4371	403.398414315	544.0
2.4474	404.082300062	591.0
2.4576	404.756315253	582.0
2.4678	405.427130628	547.0
2.4781	406.101291064	554.0
2.4883	406.76572131	560.0
2.4986	407.433464777	625.0
2.5088	408.09157067	545.0
2.519	408.746552275	567.0
2.5293	409.404799985	506.0
2.5395	410.053547174	535.0
2.5498	410.705529379	502.0
2.56	411.348101493	506.0
2.5702	411.987623065	446.0
2.5805	412.630333649	497.0
2.5907	413.26376796	442.0
2.601	413.90036093	444.0
2.6112	414.527765921	437.0
2.6214	415.152192374	381.0
2.6317	415.779732567	392.0
2.6419	416.398215442	388.0
2.6522	417.019782419	366.0
2.6624	417.632378289	340.0
2.6726	418.242065925	302.0
2.6829	418.854793806	313.0
2.6931	419.458678155	351.0
2.7034	420.065573809	296.0
2.7136	420.663710109	308.0
2.7238	421.25900682	286.0
2.7341	421.857272014	289.0
2.7443	422.446902417	292.0
2.7546	423.039473047	310.0
2.7648	423.623491077	293.0
2.775	424.204736543	318.0
2.7853	424.788880424	316.0
2.7955	425.364593329	321.0
2.8058	425.94317706	307.0
2.816	426.513410063	306.0
2.8262	427.080935947	313.0
2.8365	427.651291832	318.0
2.8467	428.213415743	332.0
2.857	428.778342718	314.0
2.8672	429.335116074	310.0
2.8774	429.889246209	359.0
2.8877	430.446139546	365.0
2.8979	430.994995215	372.0
2.9082	431.546587785	360.0
2.9184	432.090219193	391.0
2.9286	432.631269768	407.0
2.9389	433.175018325	352.0
2.9491	433.710918932	376.0
2.9594	434.24949184	413.0
2.9696	434.780291498	410.0
2.9798	435.308571242	413.0
2.9901	435.839485284	448.0
3.0003	436.362736617	463.0
3.0106	436.888597175	515.0
3.0208	437.406867962	479.0
3.031	437.922678313	473.0
3.0413	438.441060784	510.0
3.0515	438.951961415	493.0
3.0618	439.465409683	503.0
3.072	439.971447326	519.0
3.0822	440.47508261	561.0
3.0925	440.981229301	520.0
3.1027	441.480070752	556.0
3.113	441.981399707	528.0
3.1232	442.475492955	522.0
3.1334	442.967240549	577.0
3.1437	443.461440271	574.0
3.1539	443.948507185	546.0
3.1642	444.438002887	579.0
3.1744	444.920433674	593.0
3.1846	445.400574171	569.0
3.1949	445.883108919	591.0
3.2051	446.358679218	583.0
3.2154	446.836620978	584.0
3.2256	447.30766458	627.0
3.2358	447.776471953	562.0
3.2461	448.247617062	588.0
3.2563	448.711962111	589.0
3.2666	449.178622644	605.0
3.2768	449.638547843	622.0
3.287	450.096289596	599.0
3.2973	450.556313906	571.0
3.3075	451.009698662	561.0
3.3178	451.465344248	606.0
3.328	451.91441348	571.0
3.3382	452.361350803	543.0
3.3485	452.810516806	577.0
3.3587	453.253199974	571.0
3.369	453.698090608	591.0
3.3792	454.136560113	516.0
3.3894	454.572948032	547.0
3.3997	455.011512025	569.0
3.4099	455.443746202	574.0
3.4202	455.878135741	534.0
3.4304	456.306255714	518.0
3.4406	456.732343234	577.0
3.4509	457.160555464	507.0
3.4611	457.582587287	567.0
3.4714	458.006723596	535.0
3.4816	458.424738325	546.0
3.4918	458.840768574	511.0
3.5021	459.258873382	501.0
3.5123	459.670943664	493.0
3.5226	460.085068758	521.0
3.5328	460.493216765	501.0
3.543	460.899427133	498.0
3.5533	461.307663092	529.0
3.5635	461.710006963	505.0
3.5738	462.114357145	488.0
3.584	462.512871321	504.0
3.5942	462.909493593	476.0
3.6045	463.308093647	518.0
3.6147	463.700940686	495.0
3.625	464.09574668	460.0
3.6352	464.48485442	482.0
3.6454	464.872114913	482.0
3.6557	465.261306503	513.0
3.6659	465.644880872	484.0
3.6762	466.030367958	472.0
3.6864	466.410291289	448.0
3.6966	466.788410975	433.0
3.7069	467.168416178	486.0
3.7171	467.542936746	503.0
3.7274	467.919324884	471.0
3.7376	468.290280594	479.0
3.7478	468.659475231	493.0
3.7581	469.030510879	492.0
3.7683	469.396191351	475.0
3.7786	469.763695311	510.0
3.7888	470.125895068	489.0
3.799	470.486375321	500.0
3.8093	470.84865313	488.0
3.8195	471.205702165	514.0
3.8298	471.564531647	473.0
3.84	471.918182126	456.0
3.8502	472.270153686	481.0
3.8605	472.623880374	480.0
3.8707	472.972501707	474.0
3.881	473.322861461	512.0
3.8912	473.668164456	507.0
3.9014	474.011828162	488.0
3.9117	474.357205567	510.0
3.9219	474.697598123	519.0
3.9322	475.039688067	505.0
3.9424	475.37684061	478.0
3.9526	475.712392558	536.0
3.9629	476.049617755	529.0
3.9731	476.381975765	504.0
3.9834	476.715991097	455.0
3.9936	477.04518557	513.0
4.0038	477.372817228	494.0
4.0141	477.70208264	483.0
4.0243	478.026595748	470.0
4.0346	478.35272706	471.0
4.0448	478.674151304	498.0
4.055	478.994049619	482.0
4.0653	479.315543127	461.0
4.0755	479.632396504	462.0
4.0858	479.950829889	448.0
4.096	480.264667309	454.0
4.1062	480.577014819	406.0
4.1165	480.890919869	448.0
4.1267	481.200294312	427.0
4.137	481.511211469	475.0
4.1472	481.817641144	484.0
4.1574	482.122616076	471.0
4.1677	482.429111784	438.0
4.1779	482.731183825	458.0
4.1882	483.034762166	421.0
4.1984	483.333958946	421.0
4.2086	483.631735321	408.0
4.2189	483.930996576	409.0
4.2291	484.225938578	439.0
4.2394	484.522351326	401.0
4.2496	484.814485935	419.0
4.2598	485.105233666	427.0
4.2701	485.397431227	436.0
4.2803	485.685411487	444.0
4.2906	485.974827778	391.0
4.3008	486.260066909	396.0
4.311	486.543951898	397.0
4.3213	486.829252497	408.0
4.3315	487.110435337	404.0
4.3418	487.393020313	373.0
4.352	487.671526727	402.0
4.3622	487.94871096	410.0
4.3725	488.22727739	420.0
4.3827	488.501823256	422.0
4.393	488.777738162	395.0
4.4032	489.049670775	369.0
4.4134	489.320312416	401.0
4.4237	489.592303628	409.0
4.4339	489.860369178	361.0
4.4442	490.129771453	409.0
4.4544	490.395285431	384.0
4.4646	490.65953891	379.0
4.4749	490.925110105	422.0
4.4851	491.186848298	389.0
4.4954	491.449891664	395.0
4.5056	491.709138512	379.0
4.5158	491.967154613	404.0
4.5261	492.226457327	406.0
4.5363	492.482017513	395.0
4.5466	492.738852064	389.0
4.5568	492.99197971	403.0
4.567	493.24390566	414.0
4.5773	493.497087853	441.0
4.5875	493.746615855	407.0
4.5978	493.997388144	400.0
4.608	494.244541023	353.0
4.6182	494.490520571	383.0
4.6285	494.737726711	379.0
4.6387	494.981364912	449.0
4.649	495.22621803	388.0
4.6592	495.467537171	413.0
4.6694	495.707710674	392.0
4.6797	495.949081818	418.0
4.6899	496.186969239	412.0
4.7002	496.426042901	393.0
4.7104	496.661666001	403.0
4.7206	496.896170505	408.0
4.7309	497.13184438	369.0
4.7411	497.364116763	364.0
4.7514	497.597547385	391.0
4.7616	497.827608892	360.0
4.7718	498.056578207	395.0
4.7821	498.28668929	416.0
4.7923	498.51347917	390.0
4.8026	498.74139995	376.0
4.8128	498.966031139	414.0
4.823	499.189595915	402.0
4.8333	499.41427551	374.0
4.8435	499.635712293	417.0
4.8538	499.858253285	375.0
4.864	500.077582331	358.0
4.8742	500.295870136	358.0
4.8845	500.515246446	382.0
4.8947	500.731456488	396.0
4.905	500.948744673	362.0
4.9152	501.162896728	380.0
4.9254	501.376032118	365.0
4.9357	501.590230321	378.0
4.9459	501.801336991	361.0
4.9562	502.013496357	357.0
4.9664	502.222593616	359.0
4.9766	502.430698208	363.0
4.9869	502.639840526	374.0
4.9971	502.845964283	342.0
5.0074	503.053115889	332.0
5.0176	503.257277665	315.0
5.0278	503.460470205	339.0
5.0381	503.664675976	331.0
5.0483	503.865934436	304.0
5.0586	504.068196483	335.0
5.0688	504.267539272	353.0
5.079	504.465935703	321.0
5.0893	504.665321449	316.0
5.0995	504.861829451	345.0
5.1098	505.059317351	289.0
5.12	505.2539549	274.0
5.1302	505.447668427	308.0
5.1405	505.642347918	260.0
5.1507	505.834217591	272.0
5.161	506.027044033	276.0
5.1712	506.217087402	269.0
5.1814	506.40622856	262.0
5.1917	506.596312882	233.0
5.2019	506.783653708	255.0
5.2122	506.971928719	234.0
5.2224	507.157486349	264.0
5.2326	507.342163063	260.0
5.2429	507.527760679	218.0
5.2531	507.710679555	227.0
5.2634	507.894510567	218.0
5.2736	508.075688337	217.0
5.2838	508.256005985	213.0
5.2941	508.437222798	202.0
5.3043	508.6158241	200.0
5.3146	508.795316008	184.0
5.3248	508.9722173	183.0
5.335	509.148278772	210.0
5.3453	509.325218185	150.0
5.3555	509.499603823	189.0
5.3658	509.674859046	160.0
5.376	509.847584801	177.0
5.3862	510.019490559	167.0
5.3965	510.192253536	145.0
5.4067	510.362523016	146.0
5.417	510.533641555	153.0
5.4272	510.702290332	162.0
5.4374	510.870138466	125.0
5.4477	511.038823586	128.0
5.4579	511.205074064	127.0
5.4682	511.372153561	138.0
5.4784	511.536821591	106.0
5.4886	511.700707878	109.0
5.4989	511.865411393	110.0
5.5091	512.027737734	108.0
5.5194	512.190873525	103.0
5.5296	512.351654769	92.0
5.5398	512.511672722	86.0
5.5501	512.672488614	91.0
5.5603	512.830983441	70.0
5.5706	512.990268613	80.0
5.5808	513.147254815	83.0
5.591	513.303495741	81.0
5.6013	513.460515771	72.0
5.6115	513.615269524	77.0
5.6218	513.770794966	69.0
5.632	513.924075701	66.0
5.6422	514.076628753	51.0
5.6525	514.229942519	51.0
5.6627	514.381043501	60.0
5.673	514.532897956	53.0
5.6832	514.682560689	48.0
5.6934	514.831512913	32.0
5.7037	514.981207897	44.0
5.7139	515.128742326	51.0
5.7242	515.277012444	49.0
5.7344	515.423142573	46.0
5.7446	515.568578964	45.0
5.7549	515.714740582	41.0
5.7651	515.858792642	27.0
5.7754	516.003563027	46.0
5.7856	516.146243934	37.0
5.7958	516.288247478	41.0
5.8061	516.430959132	31.0
5.8163	516.571611021	25.0
5.8266	516.712964279	22.0
5.8368	516.852277379	27.0
5.847	516.990929105	37.0
5.8573	517.130272225	36.0
5.8675	517.2676042	27.0
5.8778	517.405620989	27.0
5.888	517.541645775	24.0
5.8982	517.677024797	18.0
5.9085	517.813078896	22.0
5.9187	517.947169318	17.0
5.929	518.081928391	13.0
5.9392	518.214742479	24.0
5.9494	518.346926047	12.0
5.9597	518.479768756	16.0
5.9699	518.610694139	13.0
5.9802	518.74227239	21.0
5.9904	518.871951566	13.0
6.0006	519.001015103	15.0
6.0109	519.130722224	15.0
6.0211	519.258557275	12.0
6.0314	519.387029783	15.0
6.0416	519.513648042	13.0
6.0518	519.639665193	13.0
6.0621	519.766310737	15.0
6.0723	519.8911284	14.0
6.0826	520.016568473	10.0
6.0928	520.140198063	9.0
6.103	520.263240735	10.0
6.1133	520.386896967	5.0
6.1235	520.508768463	18.0
6.1338	520.631247677	19.0
6.144	520.751959144	9.0
6.1542	520.872097545	11.0
6.1645	520.992835024	11.0
6.1747	521.111829893	8.0
6.185	521.231418137	10.0
6.1952	521.349280358	8.0
6.2054	521.466583041	6.0
6.2157	521.58447066	12.0
6.2259	521.700656802	6.0
6.2362	521.817422313	9.0
6.2464	521.932502541	9.0
6.2566	522.047036439	10.0
6.2669	522.162141466	8.0
6.2771	522.275585177	2.0
6.2874	522.389594582	8.0
6.2976	522.501958484	6.0
6.3078	522.61378895	3.0
6.3181	522.726177065	5.0
6.3283	522.836943077	9.0
6.3386	522.948261431	7.0
6.3488	523.057973121	9.0
6.359	523.167163966	8.0
6.3693	523.276899299	4.0
6.3795	523.385050816	5.0
6.3898	523.493741636	6.0
6.4	523.600863717	3.0
6.4102	523.707477248	3.0
6.4205	523.814622413	5.0
6.4307	523.920221146	4.0
6.441	524.026346454	3.0
6.4512	524.130940051	11.0
6.4614	524.2350371	7.0
6.4717	524.339653236	8.0
6.4819	524.442759441	5.0
6.4922	524.546379792	6.0
6.5024	524.648504586	2.0
6.5126	524.750144552	4.0
6.5229	524.852291353	3.0
6.5331	524.952963864	4.0
6.5434	525.054138384	3.0
6.5536	525.153852647	0.0
6.5638	525.253093528	2.0
6.5741	525.352829279	3.0
6.5843	525.451125539	3.0
6.5946	525.54991196	4.0
6.6048	525.647272591	2.0
6.615	525.744171013	4.0
6.6253	525.841552625	7.0
6.6355	525.937528723	3.0
6.6458	526.033983412	9.0
6.656	526.129045965	3.0
6.6662	526.223657219	3.0
6.6765	526.318740258	4.0
6.6867	526.412450959	4.0
6.697	526.506628954	4.0
6.7072	526.599447673	7.0
6.7174	526.691825745	6.0
6.7277	526.784664466	2.0
6.7379	526.876163241	3.0
6.7482	526.96811828	6.0
6.7584	527.058746128	2.0
6.7686	527.148943729	2.0
6.7789	527.239591107	2.0
6.7891	527.328930166	5.0
6.7994	527.41871472	3.0
6.8096	527.507203409	2.0
6.8198	527.595272007	4.0
6.8301	527.683779765	5.0
6.8403	527.771010086	3.0
6.8506	527.858675386	4.0
6.8608	527.945075408	3.0
6.871	528.031065256	3.0
6.8813	528.117483897	2.0
6.8915	528.202655254	6.0
6.9018	528.288251323	4.0
6.912	528.372611979	5.0
6.9222	528.456572142	2.0
6.9325	528.540950978	2.0
6.9427	528.62411197	3.0
6.953	528.707687649	2.0
6.9632	528.790057076	4.0
6.9734	528.872035463	1.0
6.9837	528.954422641	5.0
6.9939	529.03562072	4.0
7.0042	529.117223698	4.0
7.0144	529.197648896	3.0
7.0246	529.277692285	3.0
7.0349	529.358134814	1.0
7.0451	529.437416313	7.0
7.0554	529.517093153	6.0
7.0656	529.595620014	3.0
7.0758	529.673774077	2.0
7.0861	529.752317859	2.0
7.0963	529.829728016	2.0
7.1066	529.907524183	4.0
7.1168	529.984197514	2.0
7.127	530.060506846	4.0
7.1373	530.1371967	3.0
7.1475	530.212779685	6.0
7.1578	530.288739569	3.0
7.168	530.36360312	4.0
7.1782	530.438111265	3.0
7.1885	530.512990949	2.0
7.1987	530.586789891	5.0
7.209	530.660956836	2.0
7.2192	530.734053326	3.0
7.2294	530.806802797	2.0
7.2397	530.879915039	3.0
7.2499	530.951972048	5.0
7.2602	531.024388373	1.0
7.2704	531.09575951	1.0
7.2806	531.16679182	4.0
7.2909	531.238178337	0.0
7.3011	531.308534529	5.0
7.3114	531.379241557	1.0
7.3216	531.448928066	6.0
7.3318	531.518283746	1.0
7.3421	531.587985273	1.0
7.3523	531.656680793	3.0
7.3626	531.725718869	3.0
7.3728	531.793760514	5.0
7.383	531.861479138	4.0
7.3933	531.929535446	1.0
7.4035	531.996609494	2.0
7.4138	532.06401801	3.0
7.424	532.130453616	4.0
7.4342	532.196573826	2.0
7.4445	532.263023749	5.0
7.4547	532.328514596	1.0
7.465	532.394332018	5.0
7.4752	532.459199493	2.0
7.4854	532.523759017	1.0
7.4957	532.588640471	2.0
7.5059	532.652585488	1.0
7.5162	532.71684937	6.0
7.5264	532.780185729	2.0
7.5366	532.843221405	1.0
7.5469	532.906571412	2.0
7.5571	532.969007086	2.0
7.5674	533.031754098	3.0
7.5776	533.09359548	1.0
7.5878	533.155143277	4.0
7.5981	533.216997985	2.0
7.6083	533.277959941	0.0
7.6186	533.339225888	1.0
7.6288	533.399607581	0.0
7.639	533.459702617	3.0
7.6493	533.520097321	2.0
7.6595	533.579620346	3.0
7.6698	533.639440186	3.0
7.68	533.698396643	1.0
7.6902	533.75707321	4.0
7.7005	533.816042372	1.0
7.7107	533.874160428	2.0
7.721	533.932568294	2.0
7.7312	533.990133157	4.0
7.7414	534.047424736	4.0
7.7517	534.105002004	2.0
7.7619	534.161748255	1.0
7.7722	534.218777476	2.0
7.7824	534.27498359	2.0
7.7926	534.330922873	0.0
7.8029	534.3871411	1.0
7.8131	534.442547926	0.0
7.8234	534.498231042	3.0
7.8336	534.553110481	2.0
7.8438	534.607729385	3.0
7.8541	534.66262065	1.0
7.8643	534.716719666	2.0
