TL-DOS Lehrstuhlversuch
detector=R1408203
job_number=2015-11-04-001
irradiation_dose [mSv]=0.08

[BEGIN DATA]
time [sec] 	 temperature [K] 	 photoncount 
0.0	182.827763135	0.0
0.0102	184.241642541	0.0
0.0205	185.664090575	0.0
0.0307	187.067506288	0.0
0.041	188.479427215	0.0
0.0512	189.872456673	2.0
0.0614	191.260347009	2.0
0.0717	192.656648471	1.0
0.0819	194.034267451	1.0
0.0922	195.420235308	2.0
0.1024	196.787658948	2.0
0.1126	198.15003793	2.0
0.1229	199.520673429	1.0
0.1331	200.872969857	1.0
0.1434	202.233461698	1.0
0.1536	203.57575019	0.0
0.1638	204.913086752	1.0
0.1741	206.258528065	1.0
0.1843	207.585967404	0.0
0.1946	208.921451513	0.0
0.2048	210.239066876	0.0
0.215	211.551821332	0.0
0.2253	212.872531563	2.0
0.2355	214.175570721	1.0
0.2458	215.486506776	0.0
0.256	216.779902536	0.0
0.2662	218.06852674	0.0
0.2765	219.36496048	2.0
0.2867	220.644047967	0.0
0.297	221.930887194	0.0
0.3072	223.200508542	0.0
0.3174	224.465446041	0.0
0.3277	225.738049526	0.0
0.3379	226.993625606	0.0
0.3482	228.256810939	0.0
0.3584	229.503094881	0.0
0.3686	230.74478107	0.0
0.3789	231.993992334	0.0
0.3891	233.22648918	0.0
0.3994	234.466455409	0.0
0.4096	235.68983092	2.0
0.4198	236.90869319	0.0
0.4301	238.134942214	1.0
0.4403	239.344784054	0.0
0.4506	240.56195798	0.0
0.4608	241.762846147	0.0
0.471	242.959304034	0.0
0.4813	244.163012896	0.0
0.4915	245.350616161	0.0
0.5018	246.545416738	1.0
0.512	247.724230911	2.0
0.5222	248.898696238	0.0
0.5325	250.080279257	0.0
0.5427	251.246052722	0.0
0.553	252.418891203	0.0
0.5632	253.576037133	0.0
0.5734	254.728914154	0.0
0.5837	255.888778034	0.0
0.5939	257.033122963	1.0
0.6042	258.184403041	0.0
0.6144	259.32027902	0.0
0.6246	260.451964559	0.0
0.6349	261.590508528	0.0
0.6451	262.713818805	0.0
0.6554	263.843936755	0.0
0.6656	264.958933753	0.0
0.6758	266.069817338	0.0
0.6861	267.187433286	0.0
0.6963	268.290095558	0.0
0.7066	269.399440369	0.0
0.7168	270.493942172	0.0
0.727	271.584406172	1.0
0.7373	272.681478785	0.0
0.7475	273.763872592	0.0
0.7578	274.852826102	0.0
0.768	275.92720944	0.0
0.7782	276.997629196	2.0
0.7885	278.074536088	0.0
0.7987	279.137033992	0.0
0.809	280.205971022	0.0
0.8192	281.260605701	0.0
0.8294	282.311349653	0.0
0.8397	283.368461499	0.0
0.8499	284.411429214	0.0
0.8602	285.460717696	0.0
0.8704	286.495966722	0.0
0.8806	287.527396539	0.0
0.8909	288.5650772	0.0
0.9011	289.588873718	0.0
0.9114	290.618874818	0.0
0.9216	291.635094528	0.0
0.9318	292.647565231	0.0
0.9421	293.666171878	0.0
0.9523	294.671149592	0.0
0.9626	295.682217841	0.0
0.9728	296.679758019	0.0
0.983	297.673618103	0.0
0.9933	298.673501343	0.0
1.0035	299.66000617	0.0
1.0138	300.652489577	1.0
1.024	301.63169358	0.0
1.0342	302.607285134	1.0
1.0445	303.58878913	0.0
1.0547	304.557160626	0.0
1.065	305.531400809	0.0
1.0752	306.492605681	1.0
1.0854	307.450264505	0.0
1.0957	308.413727093	0.0
1.1059	309.364298574	0.0
1.1162	310.320630868	0.0
1.1264	311.264167457	0.0
1.1366	312.20422318	0.0
1.1469	313.149975987	0.0
1.1571	314.083074642	0.0
1.1674	315.021828218	0.0
1.1776	315.948021294	1.0
1.1878	316.870797486	1.0
1.1981	317.79916604	1.0
1.2083	318.715113045	0.0
1.2186	319.636611025	0.0
1.2288	320.545779384	1.0
1.239	321.451593666	0.0
1.2493	322.362897516	2.0
1.2595	323.262008141	0.0
1.2698	324.166567707	2.0
1.28	325.059024287	1.0
1.2902	325.948188443	1.0
1.3005	326.842741261	3.0
1.3107	327.725324983	0.0
1.321	328.613257486	1.0
1.3312	329.489309473	0.0
1.3414	330.362129556	1.0
1.3517	331.240239249	0.0
1.3619	332.106599855	1.0
1.3722	332.978210924	1.0
1.3824	333.838159857	0.0
1.3926	334.694936293	1.0
1.4029	335.556905109	1.0
1.4131	336.407340802	0.0
1.4234	337.262930448	0.0
1.4336	338.107072324	2.0
1.4438	338.948100018	1.0
1.4541	339.794224648	0.0
1.4643	340.629028151	0.0
1.4746	341.46889087	1.0
1.4848	342.297516244	1.0
1.495	343.12308468	2.0
1.5053	343.953656363	1.0
1.5155	344.773115016	0.0
1.5258	345.59753989	1.0
1.536	346.410933978	1.0
1.5462	347.221327318	0.0
1.5565	348.036631939	1.0
1.5667	348.841027802	0.0
1.577	349.650298601	1.0
1.5872	350.448741375	1.0
1.5974	351.244238558	0.0
1.6077	352.044556746	0.0
1.6179	352.834166695	2.0
1.6282	353.628561971	3.0
1.6384	354.412328257	0.0
1.6486	355.193203095	1.0
1.6589	355.978810322	0.0
1.6691	356.753906143	0.0
1.6794	357.533699329	1.0
1.6896	358.3030589	2.0
1.6998	359.069580173	3.0
1.7101	359.840746847	2.0
1.7203	360.601595329	4.0
1.7306	361.367054832	2.0
1.7408	362.122272504	1.0
1.751	362.874704051	4.0
1.7613	363.631695609	1.0
1.7715	364.378558638	5.0
1.7818	365.12994793	4.0
1.792	365.871283652	4.0
1.8022	366.609884461	2.0
1.8125	367.352961461	1.0
1.8227	368.086096109	0.0
1.833	368.823673822	2.0
1.8432	369.551382762	6.0
1.8534	370.27640706	2.0
1.8637	371.005825273	7.0
1.8739	371.725483886	6.0
1.8842	372.449503895	6.0
1.8944	373.163836533	4.0
1.9046	373.875533877	2.0
1.9149	374.591544368	12.0
1.9251	375.297974655	10.0
1.9354	376.00868617	7.0
1.9456	376.709888381	4.0
1.9558	377.408503738	4.0
1.9661	378.11135296	4.0
1.9763	378.804798077	6.0
1.9866	379.502445725	6.0
1.9968	380.190758864	3.0
2.007	380.8765327	11.0
2.0173	381.566462576	8.0
2.0275	382.247161207	4.0
2.0378	382.931985122	11.0
2.048	383.607646109	12.0
2.0582	384.280814467	7.0
2.0685	384.958062474	9.0
2.0787	385.626248917	7.0
2.089	386.298484816	8.0
2.0992	386.961726214	10.0
2.1094	387.622520802	9.0
2.1197	388.287320049	15.0
2.1299	388.943224296	12.0
2.1402	389.603103565	9.0
2.1504	390.254153664	11.0
2.1606	390.902801928	10.0
2.1709	391.55538124	14.0
2.1811	392.199229056	16.0
2.1914	392.846978825	17.0
2.2016	393.486061718	15.0
2.2118	394.122786926	17.0
2.2221	394.763370923	14.0
2.2323	395.39538392	22.0
2.2426	396.031227148	15.0
2.2528	396.658562809	16.0
2.263	397.283584122	13.0
2.2733	397.912393294	18.0
2.2835	398.532789014	18.0
2.2938	399.156944559	28.0
2.304	399.772748918	17.0
2.3142	400.386281471	11.0
2.3245	401.003532256	12.0
2.3347	401.612524239	8.0
2.345	402.225206938	18.0
2.3552	402.829691957	24.0
2.3654	403.431946928	16.0
2.3757	404.037851785	21.0
2.3859	404.635649649	14.0
2.3962	405.237070388	19.0
2.4064	405.830444132	19.0
2.4166	406.421628819	19.0
2.4269	407.016396302	16.0
2.4371	407.60320581	12.0
2.4474	408.1935716	11.0
2.4576	408.776038309	18.0
2.4678	409.356356199	21.0
2.4781	409.940191029	15.0
2.4883	410.516214163	19.0
2.4986	411.095728208	22.0
2.5088	411.667488369	12.0
2.519	412.23713921	15.0
2.5293	412.810242344	10.0
2.5395	413.375677371	13.0
2.5498	413.944539143	15.0
2.56	414.505789557	12.0
2.5702	415.064969423	18.0
2.5805	415.627538125	13.0
2.5907	416.18257967	13.0
2.601	416.740984971	14.0
2.6112	417.291918822	9.0
2.6214	417.840820185	12.0
2.6317	418.393048091	9.0
2.6419	418.937887201	14.0
2.6522	419.486028237	8.0
2.6624	420.026835157	14.0
2.6726	420.56564695	13.0
2.6829	421.10772414	10.0
2.6931	421.642548349	15.0
2.7034	422.18061379	14.0
2.7136	422.711479928	13.0
2.7238	423.24038761	8.0
2.7341	423.772500667	12.0
2.7443	424.297494064	11.0
2.7546	424.825669114	11.0
2.7648	425.346777194	10.0
2.775	425.865962818	13.0
2.7853	426.388294897	13.0
2.7955	426.903638185	10.0
2.8058	427.422104643	10.0
2.816	427.933634032	15.0
2.8262	428.443276302	11.0
2.8365	428.956007191	17.0
2.8467	429.461877754	13.0
2.857	429.970814077	15.0
2.8672	430.472940844	11.0
2.8774	430.973215181	11.0
2.8877	431.476521364	20.0
2.8979	431.973093321	19.0
2.9082	432.472674688	12.0
2.9184	432.965571667	18.0
2.9286	433.456650265	11.0
2.9389	433.950704981	12.0
2.9491	434.438149255	13.0
2.9594	434.928547621	13.0
2.9696	435.412384469	16.0
2.9798	435.89443636	18.0
2.9901	436.379409662	21.0
3.0003	436.857894033	17.0
3.0106	437.339278196	14.0
3.0208	437.814221449	13.0
3.031	438.287412556	17.0
3.0413	438.763471375	14.0
3.0515	439.233160538	22.0
3.0618	439.70569619	16.0
3.072	440.171909326	19.0
3.0822	440.636402522	14.0
3.0925	441.103710718	17.0
3.1027	441.564766341	14.0
3.113	442.028616131	22.0
3.1232	442.486259621	19.0
3.1334	442.942214787	9.0
3.1437	443.400933208	26.0
3.1539	443.853513988	22.0
3.1642	444.308837573	18.0
3.1744	444.75806894	22.0
3.1846	445.205643015	21.0
3.1949	445.655929554	18.0
3.2051	446.10019127	19.0
3.2154	446.547145375	10.0
3.2256	446.988119244	18.0
3.2358	447.427466286	16.0
3.2461	447.869475932	16.0
3.2563	448.3055715	13.0
3.2666	448.744309967	15.0
3.2768	449.177178123	12.0
3.287	449.608449356	13.0
3.2973	450.04233425	17.0
3.3075	450.470413775	20.0
3.3178	450.901087619	18.0
3.328	451.325999056	17.0
3.3382	451.749342924	20.0
3.3485	452.175252411	17.0
3.3587	452.595463238	14.0
3.369	453.018220698	18.0
3.3792	453.435321673	20.0
3.3894	453.850883891	18.0
3.3997	454.268964569	19.0
3.4099	454.681451338	11.0
3.4202	455.096437927	17.0
3.4304	455.505872006	14.0
3.4406	455.913795613	15.0
3.4509	456.324191387	13.0
3.4611	456.729096075	16.0
3.4714	457.136454635	6.0
3.4816	457.538362746	21.0
3.4918	457.93878815	17.0
3.5021	458.341640279	14.0
3.5123	458.739102256	7.0
3.5226	459.138972998	15.0
3.5328	459.533493479	15.0
3.543	459.926558507	11.0
3.5533	460.322005654	14.0
3.5635	460.712161727	12.0
3.5738	461.104682289	16.0
3.584	461.491950936	13.0
3.5942	461.877790882	20.0
3.6045	462.26596916	9.0
3.6147	462.648953622	10.0
3.625	463.034259111	18.0
3.6352	463.414409221	12.0
3.6454	463.793156892	19.0
3.6557	464.174199914	7.0
3.6659	464.550144589	10.0
3.6762	464.928367627	13.0
3.6864	465.301530049	10.0
3.6966	465.673315812	17.0
3.7069	466.047354733	14.0
3.7171	466.416389022	13.0
3.7274	466.787659795	11.0
3.7376	467.153962973	20.0
3.7478	467.518914797	9.0
3.7581	467.886078362	17.0
3.7683	468.248329288	15.0
3.7786	468.612775587	12.0
3.7888	468.972345604	12.0
3.799	469.330589106	12.0
3.8093	469.691003694	15.0
3.8195	470.046595944	17.0
3.8298	470.404343214	14.0
3.84	470.757303834	14.0
3.8502	471.108962321	13.0
3.8605	471.462751989	12.0
3.8707	471.811807959	20.0
3.881	472.162979336	13.0
3.8912	472.509452049	22.0
3.9014	472.854646565	21.0
3.9117	473.201933086	22.0
3.9219	473.544572922	14.0
3.9322	473.889289281	12.0
3.9424	474.229393344	12.0
3.9526	474.568242704	13.0
3.9629	474.909145617	17.0
3.9731	475.245487256	11.0
3.9834	475.583867249	16.0
3.9936	475.917719726	6.0
4.0038	476.250340564	10.0
4.0141	476.584977207	12.0
4.0243	476.915136419	20.0
4.0346	477.247296518	17.0
4.0448	477.575012322	15.0
4.055	477.901519127	13.0
4.0653	478.230004683	13.0
4.0755	478.554095109	11.0
4.0858	478.880149643	11.0
4.096	479.201841575	19.0
4.1062	479.522346731	13.0
4.1165	479.844794266	8.0
4.1267	480.16292746	9.0
4.137	480.482988658	8.0
4.1472	480.798767445	13.0
4.1574	481.11338127	13.0
4.1677	481.429901771	7.0
4.1779	481.742187234	11.0
4.1882	482.056365263	13.0
4.1984	482.366339596	8.0
4.2086	482.675170382	10.0
4.2189	482.985872796	8.0
4.2291	483.292418019	13.0
4.2394	483.600821018	13.0
4.2496	483.905097592	15.0
4.2598	484.208251639	14.0
4.2701	484.51324291	4.0
4.2803	484.814153405	14.0
4.2906	485.116887529	17.0
4.3008	485.415571076	11.0
4.311	485.71315273	9.0
4.3213	486.012537838	11.0
4.3315	486.307917179	11.0
4.3418	486.605086629	12.0
4.352	486.898279958	11.0
4.3622	487.190391647	8.0
4.3725	487.48427364	8.0
4.3827	487.774223499	11.0
4.393	488.06593056	12.0
4.4032	488.353734588	7.0
4.4134	488.640476858	14.0
4.4237	488.928956891	19.0
4.4339	489.213577069	10.0
4.4442	489.499922149	9.0
4.4544	489.782435938	12.0
4.4646	490.063907487	9.0
4.4749	490.347084856	11.0
4.4851	490.626473319	8.0
4.4954	490.907554978	15.0
4.5056	491.184875771	11.0
4.5158	491.461173481	10.0
4.5261	491.739145657	12.0
4.5363	492.013398571	8.0
4.5466	492.289313558	9.0
4.5568	492.56153681	9.0
4.567	492.832755784	12.0
4.5773	493.105618444	8.0
4.5875	493.374830208	16.0
4.5978	493.645673495	11.0
4.608	493.912892905	12.0
4.6182	494.179126496	10.0
4.6285	494.446973562	13.0
4.6387	494.711236839	16.0
4.649	494.97710165	7.0
4.6592	495.239409195	17.0
4.6694	495.500749043	12.0
4.6797	495.763672707	4.0
4.6899	496.023078458	6.0
4.7002	496.284056304	16.0
4.7104	496.541542272	12.0
4.7206	496.79807833	3.0
4.7309	497.056169091	7.0
4.7411	497.310806604	7.0
4.7514	497.566987314	12.0
4.7616	497.819740332	13.0
4.7718	498.071560901	11.0
4.7821	498.324907595	11.0
4.7923	498.574864516	14.0
4.8026	498.826336268	11.0
4.8128	499.074443334	11.0
4.823	499.321635091	16.0
4.8333	499.570324921	11.0
4.8435	499.815687286	15.0
4.8538	500.062536638	13.0
4.864	500.306083151	13.0
4.8742	500.548731179	10.0
4.8845	500.792849744	9.0
4.8947	501.033702008	13.0
4.905	501.276013925	9.0
4.9152	501.515083715	18.0
4.9254	501.753271535	9.0
4.9357	501.992902861	11.0
4.9459	502.229327926	21.0
4.9562	502.467185813	5.0
4.9664	502.701861167	6.0
4.9766	502.935670765	15.0
4.9869	503.170897334	9.0
4.9971	503.402976577	7.0
5.0074	503.636462305	7.0
5.0176	503.866824	11.0
5.0278	504.096335852	8.0
5.0381	504.32723863	8.0
5.0483	504.555051933	14.0
5.0586	504.78424587	14.0
5.0688	505.010373196	9.0
5.079	505.235666301	15.0
5.0893	505.462324765	8.0
5.0995	505.685950543	8.0
5.1098	505.910931576	8.0
5.12	506.132902368	9.0
5.1302	506.354054272	10.0
5.1405	506.576546438	8.0
5.1507	506.796061664	9.0
5.161	507.016907233	11.0
5.1712	507.234797893	8.0
5.1814	507.451884717	11.0
5.1917	507.670287168	10.0
5.2019	507.885767399	12.0
5.2122	508.102553519	6.0
5.2224	508.316439046	5.0
5.2326	508.529535513	7.0
5.2429	508.743923422	6.0
5.2531	508.955442827	9.0
5.2634	509.168244117	2.0
5.2736	509.37819813	10.0
5.2838	509.587377588	9.0
5.2941	509.797824749	9.0
5.3043	510.005456133	6.0
5.3146	510.214345839	3.0
5.3248	510.420440606	4.0
5.335	510.625775054	1.0
5.3453	510.832353905	3.0
5.3555	511.036168735	5.0
5.3658	511.241218758	9.0
5.376	511.443525216	6.0
5.3862	511.645085332	6.0
5.3965	511.847866976	7.0
5.4067	512.047935406	12.0
5.417	512.249216324	3.0
5.4272	512.447804109	5.0
5.4374	512.645659269	6.0
5.4477	512.844713504	2.0
5.4579	513.041104399	2.0
5.4682	513.238685494	1.0
5.4784	513.433622959	4.0
5.4886	513.627841266	7.0
5.4989	513.823236608	7.0
5.5091	514.016017564	5.0
5.5194	514.209966844	7.0
5.5296	514.401321087	4.0
5.5398	514.591969392	5.0
5.5501	514.783773096	1.0
5.5603	514.97301047	4.0
5.5706	515.163394693	5.0
5.5808	515.351231579	5.0
5.591	515.538375503	1.0
5.6013	515.726653587	3.0
5.6115	515.912412516	5.0
5.6218	516.099297212	5.0
5.632	516.283681395	1.0
5.6422	516.467385353	2.0
5.6525	516.652202625	4.0
5.6627	516.834547046	2.0
5.673	517.017996541	2.0
5.6832	517.198991486	4.0
5.6934	517.37931871	3.0
5.7037	517.560738784	2.0
5.7139	517.739731461	1.0
5.7242	517.919808899	4.0
5.7344	518.097476906	2.0
5.7446	518.274489465	1.0
5.7549	518.452574785	3.0
5.7651	518.628277328	0.0
5.7754	518.805044692	2.0
5.7856	518.979446914	5.0
5.7958	519.153205736	1.0
5.8061	519.3280176	6.0
5.8163	519.500490486	2.0
5.8266	519.67400862	2.0
5.8368	519.845205087	0.0
5.847	520.01576998	1.0
5.8573	520.187368559	1.0
5.8675	520.356671153	1.0
5.8778	520.526999783	1.0
5.888	520.69504942	2.0
5.8982	520.862479094	2.0
5.9085	521.030923453	2.0
5.9187	521.19711403	4.0
5.929	521.364311783	0.0
5.9392	521.529272434	2.0
5.9494	521.693624517	0.0
5.9597	521.858972634	0.0
5.9699	522.022108397	0.0
5.9802	522.186232823	1.0
5.9904	522.348161268	0.0
6.0006	522.509492332	0.0
6.0109	522.67180112	1.0
6.0211	522.831938221	1.0
6.0314	522.993045812	4.0
6.0416	523.151997787	0.0
6.0518	523.310363361	0.0
6.0621	523.469688689	1.0
6.0723	523.626882247	3.0
6.0826	523.785028456	2.0
6.0928	523.941058673	0.0
6.103	524.096513268	0.0
6.1133	524.252909974	2.0
6.1235	524.407214097	2.0
6.1338	524.562453358	0.0
6.144	524.715615523	2.0
6.1542	524.868212646	1.0
6.1645	525.021734563	1.0
6.1747	525.173202361	0.0
6.185	525.32558811	3.0
6.1952	525.475934941	0.0
6.2054	525.625727116	1.0
6.2157	525.776427088	2.0
6.2259	525.925110697	0.0
6.2362	526.074695383	2.0
6.2464	526.22227863	0.0
6.2566	526.369317417	0.0
6.2669	526.517247314	0.0
6.2771	526.663197911	1.0
6.2874	526.810033023	1.0
6.2976	526.954903485	3.0
6.3078	527.099239495	0.0
6.3181	527.244450234	2.0
6.3283	527.387718057	1.0
6.3386	527.531854135	0.0
6.3488	527.674061676	1.0
6.359	527.81574459	1.0
6.3693	527.958286153	0.0
6.3795	528.098920515	0.0
6.3898	528.240407171	0.0
6.4	528.38000074	1.0
6.4102	528.519079324	1.0
6.4205	528.659000776	0.0
6.4307	528.797050082	1.0
6.441	528.935936017	1.0
6.4512	529.072963662	1.0
6.4614	529.209485789	0.0
6.4717	529.34683529	1.0
6.4819	529.482347057	1.0
6.4922	529.618680076	1.0
6.5024	529.753188962	0.0
6.5126	529.887201622	1.0
6.5229	530.022026449	0.0
6.5331	530.155047322	2.0
6.5434	530.28887435	0.0
6.5536	530.420910776	0.0
6.5638	530.552460097	1.0
6.5741	530.684806655	1.0
6.5843	530.815382419	0.0
6.5946	530.946749521	0.0
6.6048	531.076358934	2.0
6.615	531.205490195	0.0
6.6253	531.33540404	0.0
6.6355	531.46357964	0.0
6.6458	531.592532031	0.0
6.656	531.719759043	0.0
6.6662	531.846516692	3.0
6.6765	531.97404254	0.0
6.6867	532.099862094	0.0
6.697	532.226444161	1.0
6.7072	532.351332563	0.0
6.7174	532.475760231	1.0
6.7277	532.600941976	0.0
6.7379	532.724448792	0.0
6.7482	532.848704105	2.0
6.7584	532.971296885	0.0
6.7686	533.093437399	0.0
6.7789	533.216318129	0.0
6.7891	533.337554718	1.0
6.7994	533.459526046	1.0
6.8096	533.5798654	2.0
6.8198	533.699760801	1.0
6.8301	533.820382813	0.0
6.8403	533.939390905	0.0
6.8506	534.05912023	0.0
6.8608	534.177247579	4.0
6.871	534.294939136	2.0
6.8813	534.413343948	2.0
6.8915	534.530164506	0.0
6.9018	534.647693039	0.0
6.912	534.763649043	0.0
6.9222	534.879177266	0.0
6.9325	534.995405632	1.0
6.9427	535.110078866	1.0
6.953	535.225447061	0.0
6.9632	535.339271633	0.0
6.9734	535.452676287	1.0
6.9837	535.566768214	3.0
6.9939	535.679333594	1.0
7.0042	535.792581162	1.0
7.0144	535.904313479	1.0
7.0246	536.015633598	0.0
7.0349	536.127628357	0.0
7.0451	536.238124629	3.0
7.0554	536.349290548	0.0
7.0656	536.458969071	1.0
7.0758	536.568242971	0.0
7.0861	536.67817911	1.0
7.0963	536.786644307	1.0
7.1066	536.895766843	1.0
7.1168	537.003429321	0.0
7.127	537.110694615	1.0
7.1373	537.218609976	0.0
7.1475	537.325081431	1.0
7.1578	537.432198143	0.0
7.168	537.537881635	1.0
7.1782	537.643175244	1.0
7.1885	537.74910697	1.0
7.1987	537.853621332	0.0
7.209	537.95876909	0.0
7.2192	538.062509973	0.0
7.2294	538.165868138	0.0
7.2397	538.269852692	0.0
7.2499	538.372445935	1.0
7.2602	538.47566093	1.0
7.2704	538.577494912	0.0
7.2806	538.67895321	1.0
7.2909	538.781026383	1.0
7.3011	538.88173382	0.0
7.3114	538.98305158	0.0
7.3216	539.083013711	1.0
7.3318	539.182607065	1.0
7.3421	539.282803992	0.0
7.3523	539.381660285	0.0
7.3626	539.481115685	0.0
7.3728	539.579240373	2.0
7.383	539.677003062	0.0
7.3933	539.77535823	1.0
7.4035	539.872397407	0.0
7.4138	539.970024678	1.0
7.424	540.066345698	0.0
7.4342	540.162311373	1.0
7.4445	540.258858636	1.0
7.4547	540.354114099	1.0
7.465	540.449946844	1.0
7.4752	540.54449735	0.0
7.4854	540.638699043	0.0
7.4957	540.733471633	0.0
7.5059	540.826976167	1.0
7.5162	540.921047374	1.0
7.5264	541.01385991	1.0
7.5366	541.106330045	0.0
7.5469	541.199360582	0.0
7.5571	541.291146374	0.0
7.5674	541.383488421	1.0
7.5776	541.474594933	0.0
7.5878	541.565365338	0.0
7.5981	541.656685845	3.0
7.6083	541.746784486	0.0
7.6186	541.837429158	0.0
7.6288	541.926861006	0.0
7.639	542.015962925	0.0
7.6493	542.105604834	0.0
7.6595	542.194047337	1.0
7.6698	542.283025833	0.0
7.68	542.3708138	0.0
7.6902	542.458277901	0.0
7.7005	542.546272068	3.0
7.7107	542.633088874	0.0
7.721	542.720431822	0.0
7.7312	542.806606124	1.0
7.7414	542.892462514	1.0
7.7517	542.978839225	0.0
7.7619	543.064060218	0.0
7.7722	543.149797681	1.0
7.7824	543.234387979	0.0
7.7926	543.318666209	0.0
7.8029	543.403455196	1.0
7.8131	543.487109708	2.0
7.8234	543.571271198	0.0
7.8336	543.654306609	0.0
7.8438	543.737035688	0.0
7.8541	543.820266135	0.0
7.8643	543.902382961	2.0
7.8746	543.984997446	1.0
7.8848	544.06650655	0.0
7.895	544.147714954	0.0
7.9053	544.22941551	0.0
7.9155	544.310022915	1.0
7.9258	544.39111883	2.0
7.936	544.471129684	1.0
7.9462	544.550845364	0.0
7.9565	544.63104415	0.0
7.9667	544.710169879	1.0
7.977	544.789775138	1.0
7.9872	544.868315281	0.0
7.9974	544.946565676	0.0
8.0077	545.025290297	0.0
8.0179	545.102961585	1.0
8.0282	545.181103589	0.0
8.0384	545.258200055	0.0
8.0486	545.335012099	0.0
8.0589	545.412289652	3.0
8.0691	545.488533234	0.0
8.0794	545.565238879	0.0
8.0896	545.640918205	0.0
