TL-DOS Lehrstuhlversuch
detector=R1407601
job_number=2015-10-30-004
irradiation_dose [mSv]=0.3

[BEGIN DATA]
time [sec] 	 temperature [K] 	 photoncount 
0.0	149.295361424	0.0
0.0102	150.824783262	0.0
0.0205	152.363270297	0.0
0.0307	153.880971501	1.0
0.041	155.407668432	1.0
0.0512	156.913738822	0.0
0.0614	158.414055423	2.0
0.0717	159.923264709	0.0
0.0819	161.412083722	0.0
0.0922	162.909727272	3.0
0.1024	164.387136809	1.0
0.1126	165.858902052	2.0
0.1229	167.339390751	0.0
0.1331	168.799877209	1.0
0.1434	170.26902027	0.0
0.1536	171.718314375	2.0
0.1638	173.1620716	1.0
0.1741	174.61438627	1.0
0.1843	176.047079347	1.0
0.1946	177.488264289	0.0
0.2048	178.909978007	0.0
0.215	180.326260211	2.0
0.2253	181.750937012	0.0
0.2355	183.156365621	0.0
0.2458	184.570124495	0.0
0.256	185.964782685	0.0
0.2662	187.354112725	0.0
0.2765	188.751677611	0.0
0.2867	190.130360602	0.0
0.297	191.517215331	0.0
0.3072	192.885332866	0.0
0.3174	194.248223648	0.0
0.3277	195.619192563	0.0
0.3379	196.971638912	0.0
0.3482	198.332101488	0.0
0.3584	199.674183443	0.0
0.3686	201.011138111	0.0
0.3789	202.356017184	0.0
0.3891	203.682726179	0.0
0.3994	205.01729885	0.0
0.4096	206.333840688	0.0
0.4198	207.645352812	0.0
0.4301	208.964638539	0.0
0.4403	210.266099967	0.0
0.4506	211.575275424	0.0
0.4608	212.86676318	0.0
0.471	214.153316937	0.0
0.4813	215.447496363	0.0
0.4915	216.724190692	0.0
0.5018	218.008452251	0.0
0.512	219.275362707	0.0
0.5222	220.537433062	0.0
0.5325	221.806983967	0.0
0.5427	223.059382519	0.0
0.553	224.319204295	0.0
0.5632	225.562005165	0.0
0.5734	226.800058041	0.0
0.5837	228.045449111	0.0
0.5939	229.274014241	0.0
0.6042	230.50986133	0.0
0.6144	231.729011423	0.0
0.6246	232.943503878	0.0
0.6349	234.16519488	1.0
0.6451	235.370380143	0.0
0.6554	236.582708788	0.0
0.6656	237.778658185	1.0
0.6758	238.970038579	0.0
0.6861	240.16848053	0.0
0.6963	241.350730851	0.0
0.7066	242.539988612	0.0
0.7168	243.713178828	0.0
0.727	244.881886989	0.0
0.7373	246.057522323	2.0
0.7475	247.217274159	0.0
0.7578	248.383900081	0.0
0.768	249.534764226	0.0
0.7782	250.681231612	0.0
0.7885	251.834494346	0.0
0.7987	252.972175846	0.0
0.809	254.116600619	0.0
0.8192	255.245563564	0.0
0.8294	256.370213422	0.0
0.8397	257.50152931	0.0
0.8499	258.617560479	0.0
0.8602	259.740206595	1.0
0.8704	260.847685125	1.0
0.8806	261.950932646	0.0
0.8909	263.060719342	0.0
0.9011	264.155512191	0.0
0.9114	265.256794102	0.0
0.9216	266.34319707	0.0
0.9318	267.425449546	0.0
0.9421	268.514116755	0.0
0.9523	269.588075453	0.0
0.9626	270.668399725	0.0
0.9728	271.734128204	0.0
0.983	272.795785176	0.0
0.9933	273.863734807	0.0
1.0035	274.917255832	0.0
1.0138	275.977021294	0.0
1.024	277.022468724	1.0
1.0342	278.063922128	0.0
1.0445	279.11154844	0.0
1.0547	280.145020727	0.0
1.065	281.184618617	0.0
1.0752	282.210170951	1.0
1.0854	283.231805266	0.0
1.0957	284.259495017	0.0
1.1059	285.273300097	0.0
1.1162	286.293114209	0.0
1.1264	287.299150054	0.0
1.1366	288.301342441	1.0
1.1469	289.309475029	0.0
1.1571	290.303987174	0.0
1.1674	291.304393997	0.0
1.1776	292.291284757	0.0
1.1878	293.274405201	0.0
1.1981	294.263352802	1.0
1.2083	295.23893916	1.0
1.2186	296.22030802	0.0
1.2288	297.188418029	0.0
1.239	298.152829473	0.0
1.2493	299.122957182	0.0
1.2595	300.079977916	1.0
1.2698	301.042671108	1.0
1.28	301.99235777	1.0
1.2902	302.93841625	2.0
1.3005	303.890082214	3.0
1.3107	304.828890631	0.0
1.321	305.773263558	1.0
1.3312	306.704877472	3.0
1.3414	307.63293225	0.0
1.3517	308.566487799	0.0
1.3619	309.487430484	0.0
1.3722	310.413831785	0.0
1.3824	311.32771688	0.0
1.3926	312.238110569	1.0
1.4029	313.153900349	1.0
1.4131	314.05731729	0.0
1.4234	314.966088969	1.0
1.4336	315.862582628	0.0
1.4438	316.755651324	1.0
1.4541	317.654013421	2.0
1.4643	318.540238138	0.0
1.4746	319.43171569	0.0
1.4848	320.311148876	0.0
1.495	321.187222276	0.0
1.5053	322.068488344	0.0
1.5155	322.937848008	1.0
1.5258	323.812360545	1.0
1.536	324.675057922	0.0
1.5462	325.534459451	0.0
1.5565	326.39895483	0.0
1.5667	327.251770387	2.0
1.577	328.109640756	1.0
1.5872	328.955920811	1.0
1.5974	329.798967739	0.0
1.6077	330.647011579	0.0
1.6179	331.483597866	0.0
1.6282	332.325142773	0.0
1.6384	333.15531793	1.0
1.6486	333.982321488	1.0
1.6589	334.814226866	2.0
1.6691	335.634892731	1.0
1.6794	336.460422851	0.0
1.6896	337.274799591	0.0
1.6998	338.086065088	2.0
1.7101	338.902139122	1.0
1.7203	339.707187534	1.0
1.7306	340.517007633	1.0
1.7408	341.315886603	0.0
1.751	342.111713537	2.0
1.7613	342.912257502	1.0
1.7715	343.701985664	0.0
1.7818	344.496394706	1.0
1.792	345.280070833	1.0
1.8022	346.060753004	2.0
1.8125	346.84606244	3.0
1.8227	347.620761899	3.0
1.833	348.400053162	5.0
1.8432	349.168815758	1.0
1.8534	349.934641375	3.0
1.8637	350.705006197	0.0
1.8739	351.464962954	3.0
1.8842	352.229424132	2.0
1.8944	352.983557005	4.0
1.9046	353.73480879	1.0
1.9149	354.490513399	3.0
1.9251	355.236008011	3.0
1.9354	355.985921323	7.0
1.9456	356.72570288	4.0
1.9558	357.462658177	1.0
1.9661	358.20398156	3.0
1.9763	358.935289244	5.0
1.9866	359.670931539	6.0
1.9968	360.39663489	4.0
2.007	361.119565764	2.0
2.0173	361.846781599	5.0
2.0275	362.564172335	3.0
2.0378	363.285815194	4.0
2.048	363.997708249	9.0
2.0582	364.706881589	7.0
2.0685	365.420258345	7.0
2.0787	366.123996977	0.0
2.089	366.831906812	4.0
2.0992	367.530252384	7.0
2.1094	368.225929998	5.0
2.1197	368.925731036	11.0
2.1299	369.616077366	8.0
2.1402	370.31051552	10.0
2.1504	370.995571421	9.0
2.1606	371.678010136	8.0
2.1709	372.364493805	8.0
2.1811	373.041702691	10.0
2.1914	373.722925533	17.0
2.2016	374.394944668	9.0
2.2118	375.064396423	18.0
2.2221	375.737816156	11.0
2.2323	376.402137606	13.0
2.2426	377.070396627	13.0
2.2528	377.729627089	8.0
2.263	378.386339028	20.0
2.2733	379.046943434	16.0
2.2835	379.6986227	24.0
2.2938	380.354164604	14.0
2.304	381.000849764	12.0
2.3142	381.645064329	21.0
2.3245	382.293097287	22.0
2.3347	382.932374952	23.0
2.345	383.575441748	24.0
2.3552	384.209820346	16.0
2.3654	384.841775366	16.0
2.3757	385.477476112	21.0
2.3859	386.104588182	27.0
2.3962	386.735417273	29.0
2.4064	387.357723507	38.0
2.4166	387.977652282	36.0
2.4269	388.601255503	12.0
2.4371	389.21643349	24.0
2.4474	389.835257764	26.0
2.4576	390.445721372	27.0
2.4678	391.053852765	48.0
2.4781	391.665588678	40.0
2.4883	392.269059693	30.0
2.4986	392.876107604	38.0
2.5088	393.474953953	36.0
2.519	394.071512471	26.0
2.5293	394.671606914	34.0
2.5395	395.263593741	30.0
2.5498	395.859089396	27.0
2.56	396.446539567	45.0
2.5702	397.031745444	33.0
2.5805	397.620419957	36.0
2.5907	398.201141143	39.0
2.601	398.785304384	27.0
2.6112	399.361575248	42.0
2.6214	399.935644527	45.0
2.6317	400.513116433	42.0
2.6419	401.082786367	34.0
2.6522	401.655832851	48.0
2.6624	402.221137153	38.0
2.6726	402.784281767	46.0
2.6829	403.350764255	51.0
2.6931	403.909593243	43.0
2.7034	404.471734526	43.0
2.7136	405.026280961	51.0
2.7238	405.578708808	35.0
2.7341	406.134411009	41.0
2.7443	406.682605358	46.0
2.7546	407.234048967	42.0
2.7648	407.778042261	33.0
2.775	408.319957283	48.0
2.7853	408.865084348	50.0
2.7955	409.402846437	44.0
2.8058	409.943795952	36.0
2.816	410.477436933	32.0
2.8262	411.009039192	48.0
2.8365	411.543792368	34.0
2.8467	412.071320725	32.0
2.857	412.601975851	37.0
2.8672	413.125461526	38.0
2.8774	413.646947276	27.0
2.8877	414.17152398	32.0
2.8979	414.689013356	35.0
2.9082	415.209569997	27.0
2.9184	415.723093623	30.0
2.9286	416.234655385	40.0
2.9389	416.749249278	35.0
2.9491	417.256890716	34.0
2.9594	417.767541049	21.0
2.9696	418.271292206	31.0
2.9798	418.773118834	34.0
2.9901	419.277919891	16.0
3.0003	419.7759008	21.0
3.0106	420.276833344	33.0
3.0208	420.770998005	29.0
3.031	421.263274761	23.0
3.0413	421.758469342	19.0
3.0515	422.246973564	21.0
3.0618	422.738373251	21.0
3.072	423.223133849	24.0
3.0822	423.706042469	28.0
3.0925	424.191813387	25.0
3.1027	424.671021265	31.0
3.113	425.153069507	27.0
3.1232	425.628605004	18.0
3.1334	426.102323765	30.0
3.1437	426.578850355	22.0
3.1539	427.048938801	37.0
3.1642	427.521813558	29.0
3.1744	427.988299509	30.0
3.1846	428.453003297	34.0
3.1949	428.920461481	33.0
3.2051	429.381604039	32.0
3.2154	429.845479885	33.0
3.2256	430.303088504	25.0
3.2358	430.758948877	40.0
3.2461	431.217511228	31.0
3.2563	431.669878141	27.0
3.2666	432.124926326	34.0
3.2768	432.573826552	42.0
3.287	433.021011801	38.0
3.2973	433.470847608	33.0
3.3075	433.914605879	32.0
3.3178	434.360994396	39.0
3.328	434.801351952	38.0
3.3382	435.240027166	32.0
3.3485	435.681302498	43.0
3.3587	436.11661595	46.0
3.369	436.554509595	40.0
3.3792	436.986487049	51.0
3.3894	437.416814176	45.0
3.3997	437.849691941	43.0
3.4099	438.276721282	36.0
3.4202	438.706281714	39.0
3.4304	439.13003854	54.0
3.4406	439.552176447	44.0
3.4509	439.976816452	25.0
3.4611	440.39571933	49.0
3.4714	440.817105131	53.0
3.4816	441.232797772	53.0
3.4918	441.646902301	52.0
3.5021	442.063461312	48.0
3.5123	442.474392376	33.0
3.5226	442.887759112	54.0
3.5328	443.295541029	45.0
3.543	443.701765057	50.0
3.5533	444.110396858	52.0
3.5635	444.513507812	45.0
3.5738	444.919008088	45.0
3.584	445.319029825	50.0
3.5942	445.717523319	42.0
3.6045	446.118378767	44.0
3.6147	446.51381843	58.0
3.625	446.911601945	45.0
3.6352	447.30401118	54.0
3.6454	447.694921255	45.0
3.6557	448.088148334	35.0
3.6659	448.476062693	44.0
3.6762	448.8662763	50.0
3.6864	449.2512179	51.0
3.6966	449.634688869	52.0
3.7069	450.02043275	40.0
3.7171	450.400965013	47.0
3.7274	450.783752768	47.0
3.7376	451.161368844	47.0
3.7478	451.537542276	45.0
3.7581	451.915945366	55.0
3.7683	452.289236015	45.0
3.7786	452.664739234	51.0
3.7888	453.035169192	49.0
3.799	453.404183961	43.0
3.8093	453.775385955	46.0
3.8195	454.141572801	41.0
3.8298	454.509930111	49.0
3.84	454.873310705	41.0
3.8502	455.23530304	37.0
3.8605	455.599440979	40.0
3.8707	455.958659207	45.0
3.881	456.320006596	37.0
3.8912	456.676471976	50.0
3.9014	457.031575517	35.0
3.9117	457.38878383	44.0
3.9219	457.741166056	33.0
3.9322	458.095636924	31.0
3.9424	458.445318689	39.0
3.9526	458.793664531	44.0
3.9629	459.144075091	39.0
3.9731	459.489751405	38.0
3.9834	459.837476613	36.0
3.9936	460.180503857	33.0
4.0038	460.522220601	41.0
4.0141	460.865962769	28.0
4.0243	461.205060786	39.0
4.0346	461.546168707	42.0
4.0448	461.882668067	48.0
4.055	462.217881864	38.0
4.0653	462.555082543	41.0
4.0755	462.88772745	44.0
4.0858	463.222344012	38.0
4.096	463.552439714	47.0
4.1062	463.881274319	32.0
4.1165	464.212057994	37.0
4.1267	464.538372594	42.0
4.137	464.866621328	42.0
4.1472	465.190435236	36.0
4.1574	465.513012046	34.0
4.1677	465.837500834	39.0
4.1779	466.157605595	32.0
4.1882	466.479607683	34.0
4.1984	466.797259341	28.0
4.2086	467.113697442	33.0
4.2189	467.432011137	43.0
4.2291	467.746024233	33.0
4.2394	468.06189855	45.0
4.2496	468.373505226	35.0
4.2598	468.68392144	45.0
4.2701	468.996177555	38.0
4.2803	469.304214913	32.0
4.2906	469.614078071	36.0
4.3008	469.919754803	32.0
4.311	470.224263727	45.0
4.3213	470.530577539	43.0
4.3315	470.832752878	36.0
4.3418	471.136719272	45.0
4.352	471.436578907	35.0
4.3622	471.73529296	46.0
4.3725	472.035777552	46.0
4.3827	472.332202426	41.0
4.393	472.630384273	23.0
4.4032	472.924537513	40.0
4.4134	473.217566971	34.0
4.4237	473.512333274	36.0
4.4339	473.803117118	46.0
4.4442	474.095624497	38.0
4.4544	474.384179936	38.0
4.4646	474.671632978	30.0
4.4749	474.960789814	48.0
4.4851	475.246039977	41.0
4.4954	475.532980876	39.0
4.5056	475.816045041	36.0
4.5158	476.098027788	43.0
4.5261	476.381681904	45.0
4.5363	476.661503693	39.0
4.5466	476.942984043	37.0
4.5568	477.220661435	35.0
4.567	477.497277987	44.0
4.5773	477.775534103	22.0
4.5875	478.050030822	45.0
4.5978	478.326154538	32.0
4.608	478.598547667	41.0
4.6182	478.869900146	32.0
4.6285	479.142860986	30.0
4.6387	479.412133971	46.0
4.649	479.683002992	35.0
4.6592	479.950212419	32.0
4.6694	480.216401	38.0
4.6797	480.484167335	31.0
4.6899	480.748315995	31.0
4.7002	481.014030319	27.0
4.7104	481.276154691	37.0
4.7206	481.537277644	28.0
4.7309	481.799948327	38.0
4.7411	482.059070179	32.0
4.7514	482.319727901	36.0
4.7616	482.576863988	40.0
4.7718	482.833017713	44.0
4.7821	483.090689715	39.0
4.7923	483.344880421	41.0
4.8026	483.600577768	40.0
4.8128	483.852820499	29.0
4.823	484.104099562	29.0
4.8333	484.356868007	33.0
4.8435	484.606221408	42.0
4.8538	484.857052778	33.0
4.864	485.104495274	30.0
4.8742	485.350992441	29.0
4.8845	485.598950647	41.0
4.8947	485.843558797	31.0
4.905	486.08961679	34.0
4.9152	486.3323504	25.0
4.9254	486.574156671	35.0
4.9357	486.817396178	32.0
4.9459	487.057349381	33.0
4.9562	487.298724836	32.0
4.9664	487.536839172	31.0
4.9766	487.774043816	38.0
4.9869	488.012654421	30.0
4.9971	488.248041261	35.0
5.0074	488.484823288	41.0
5.0176	488.718406255	24.0
5.0278	488.951096842	26.0
5.0381	489.185166634	24.0
5.0483	489.416074011	18.0
5.0586	489.648350023	26.0
5.0688	489.877487854	34.0
5.079	490.105750288	31.0
5.0893	490.33536568	29.0
5.0995	490.561878838	30.0
5.1098	490.789734586	37.0
5.12	491.014511874	34.0
5.1302	491.238430423	33.0
5.1405	491.463676183	26.0
5.1507	491.685878745	33.0
5.161	491.909398348	34.0
5.1712	492.129898074	35.0
5.1814	492.349555404	30.0
5.1917	492.570514687	29.0
5.2019	492.788488685	22.0
5.2122	493.00775466	27.0
5.2224	493.224058228	26.0
5.2326	493.43953543	30.0
5.2429	493.656289809	34.0
5.2531	493.870115714	29.0
5.2634	494.085209009	24.0
5.2736	494.297396271	30.0
5.2838	494.508772894	31.0
5.2941	494.72140239	37.0
5.3043	494.93115914	29.0
5.3146	495.142159162	25.0
5.3248	495.350308454	32.0
5.335	495.557662533	30.0
5.3453	495.766245642	33.0
5.3555	495.972010675	26.0
5.3658	496.178995319	20.0
5.376	496.383183484	39.0
5.3862	496.586591569	24.0
5.3965	496.791205295	42.0
5.4067	496.993054574	41.0
5.417	497.196100255	33.0
5.4272	497.396402673	38.0
5.4374	497.595939857	21.0
5.4477	497.796659739	20.0
5.4579	497.994667781	33.0
5.4682	498.193849458	30.0
5.4784	498.390340077	38.0
5.4886	498.586080024	41.0
5.4989	498.782980162	34.0
5.5091	498.977220067	24.0
5.5194	499.172611272	34.0
5.5296	499.365362631	37.0
5.5398	499.557377604	23.0
5.5501	499.750530688	26.0
5.5603	499.941074165	34.0
5.5706	500.132747032	22.0
5.5808	500.32183029	31.0
5.591	500.510191175	27.0
5.6013	500.699668514	26.0
5.6115	500.886585906	21.0
5.6218	501.074611196	29.0
5.632	501.260096158	30.0
5.6422	501.444872493	24.0
5.6525	501.630744036	30.0
5.6627	501.814104349	24.0
5.673	501.998551476	31.0
5.6832	502.180506618	17.0
5.6934	502.361766618	34.0
5.7037	502.544100984	34.0
5.7139	502.72397191	22.0
5.7242	502.904908967	24.0
5.7344	503.083401462	30.0
5.7446	503.261212045	23.0
5.7549	503.440076548	25.0
5.7651	503.61652449	23.0
5.7754	503.794018275	22.0
5.7856	503.969114018	35.0
5.7958	504.143540826	35.0
5.8061	504.319001497	23.0
5.8163	504.492091596	26.0
5.8266	504.666207635	28.0
5.8368	504.837971267	27.0
5.847	505.009078694	28.0
5.8573	505.181200311	26.0
5.8675	505.350996466	26.0
5.8778	505.521799038	16.0
5.888	505.690293971	26.0
5.8982	505.858145186	23.0
5.9085	506.026991289	22.0
5.9187	506.193556186	31.0
5.929	506.361108347	31.0
5.9392	506.526396784	20.0
5.9494	506.691053753	28.0
5.9597	506.856686678	25.0
5.9699	507.020081808	23.0
5.9802	507.184445414	20.0
5.9904	507.346588375	20.0
6.0006	507.508111886	20.0
6.0109	507.670592779	14.0
6.0211	507.830878464	20.0
6.0314	507.992114194	18.0
6.0416	508.151171539	18.0
6.0518	508.309621221	25.0
6.0621	508.469010067	17.0
6.0723	508.626245479	18.0
6.0826	508.784412858	29.0
6.0928	508.940443306	15.0
6.103	509.095877656	24.0
6.1133	509.252233297	19.0
6.1235	509.406476484	9.0
6.1338	509.561633903	20.0
6.144	509.714695057	12.0
6.1542	509.867171457	12.0
6.1645	510.020551615	11.0
6.1747	510.171859521	21.0
6.185	510.324064259	14.0
6.1952	510.474212625	16.0
6.2054	510.623787365	17.0
6.2157	510.774248665	12.0
6.2259	510.922677148	10.0
6.2362	511.071985396	14.0
6.2464	511.219276406	29.0
6.2566	511.366004705	10.0
6.2669	511.513602693	9.0
6.2771	511.659206549	17.0
6.2874	511.805673429	9.0
6.2976	511.950161458	14.0
6.3078	512.094097485	10.0
6.3181	512.238886651	6.0
6.3283	512.381719633	11.0
6.3386	512.525399215	10.0
6.3488	512.667137605	4.0
6.359	512.808334497	4.0
6.3693	512.950368293	13.0
6.3795	513.090483132	12.0
6.3898	513.23142846	8.0
6.4	513.370469537	13.0
6.4102	513.508979421	6.0
6.4205	513.648310282	10.0
6.4307	513.785758705	9.0
6.441	513.924021812	6.0
6.4512	514.060416906	5.0
6.4614	514.196290917	11.0
6.4717	514.332970281	12.0
6.4819	514.467803029	7.0
6.4922	514.603434959	10.0
6.5024	514.737234424	6.0
6.5126	514.870522722	6.0
6.5229	515.004601048	7.0
6.5331	515.136867899	8.0
6.5434	515.269918723	4.0
6.5536	515.401171955	3.0
6.5638	515.531923747	5.0
6.5741	515.663450532	3.0
6.5843	515.793200316	7.0
6.5946	515.923719153	5.0
6.6048	516.052474607	4.0
6.615	516.180738164	6.0
6.6253	516.309761965	4.0
6.6355	516.437042581	3.0
6.6458	516.565077616	3.0
6.656	516.691382825	3.0
6.6662	516.817205498	1.0
6.6765	516.943773948	4.0
6.6867	517.068632386	4.0
6.697	517.194230886	2.0
6.7072	517.318132479	2.0
6.7174	517.441560718	4.0
6.7277	517.565720542	5.0
6.7379	517.688202896	1.0
6.7482	517.811411229	3.0
6.7584	517.932954947	4.0
6.7686	518.05403432	3.0
6.7789	518.175831355	2.0
6.7891	518.295982843	2.0
6.7994	518.416846493	1.0
6.8096	518.536077207	2.0
6.8198	518.654852413	2.0
6.8301	518.774331623	3.0
6.8403	518.892196602	2.0
6.8506	519.01076019	2.0
6.8608	519.127721918	3.0
6.871	519.244236804	2.0
6.8813	519.361442299	2.0
6.8915	519.477064281	5.0
6.9018	519.593371578	2.0
6.912	519.708107498	3.0
6.9222	519.82240508	3.0
6.9325	519.937380129	2.0
6.9427	520.050801798	2.0
6.953	520.164895742	1.0
6.9632	520.277448212	4.0
6.9734	520.389570686	1.0
6.9837	520.502357733	3.0
6.9939	520.613620964	1.0
7.0042	520.725543674	1.0
7.0144	520.835954245	2.0
7.0246	520.945943004	3.0
7.0349	521.056583689	0.0
7.0451	521.165729556	3.0
7.0554	521.275522352	1.0
7.0656	521.383831786	1.0
7.0758	521.491727434	4.0
7.0861	521.600262602	4.0
7.0963	521.707331399	3.0
7.1066	521.815034814	1.0
7.1168	521.921283095	1.0
7.127	522.027125465	1.0
7.1373	522.133595185	1.0
7.1475	522.238626438	0.0
7.1578	522.344280234	1.0
7.168	522.448506586	1.0
7.1782	522.552334753	1.0
7.1885	522.65677833	0.0
7.1987	522.759810816	1.0
7.209	522.863453996	1.0
7.2192	522.965696898	1.0
7.2294	523.067549192	3.0
7.2397	523.170005184	1.0
7.2499	523.271076939	0.0
7.2602	523.372747766	0.0
7.2704	523.473044963	1.0
7.2806	523.572958985	0.0
7.2909	523.673465218	1.0
7.3011	523.772613554	2.0
7.3114	523.872349563	1.0
7.3216	523.970738083	0.0
7.3318	524.068750718	3.0
7.3421	524.167344295	0.0
7.3523	524.264605817	1.0
7.3626	524.362443828	2.0
7.3728	524.458959991	3.0
7.383	524.555107425	0.0
7.3933	524.651824744	2.0
7.4035	524.747235357	0.0
7.4138	524.843211489	1.0
7.424	524.937890929	0.0
7.4342	525.032208655	2.0
7.4445	525.127085423	1.0
7.4547	525.220680351	0.0
7.465	525.314830035	2.0
7.4752	525.407707705	2.0
7.4854	525.500230544	3.0
7.4957	525.593301785	1.0
7.5059	525.685115581	1.0
7.5162	525.777473576	0.0
7.5264	525.868583763	0.0
7.5366	525.959345872	0.0
7.5469	526.050645947	0.0
7.5571	526.140712506	1.0
7.5674	526.231312908	1.0
7.5776	526.320689247	0.0
7.5878	526.409724134	3.0
7.5981	526.499286748	0.0
7.6083	526.58763932	0.0
7.6186	526.676515577	1.0
7.6288	526.764191065	2.0
7.639	526.851531597	0.0
7.6493	526.939389815	0.0
7.6595	527.026061018	1.0
7.6698	527.11324594	1.0
7.68	527.199252944	1.0
7.6902	527.284931366	1.0
7.7005	527.371117623	2.0
7.7107	527.456139454	0.0
7.721	527.541665227	0.0
7.7312	527.626035499	0.0
7.7414	527.710083442	0.0
7.7517	527.794629555	0.0
7.7619	527.878033402	1.0
7.7722	527.961931601	1.0
7.7824	528.044696287	3.0
7.7926	528.12714478	0.0
7.8029	528.210081961	0.0
7.8131	528.291898615	2.0
7.8234	528.374200212	2.0
7.8336	528.455389868	0.0
7.8438	528.536269347	2.0
7.8541	528.617628216	2.0
7.8643	528.69788788	0.0
7.8746	528.77862326	1.0
7.8848	528.858267859	0.0
7.895	528.937608184	1.0
7.9053	529.017418775	1.0
7.9155	529.09615108	0.0
7.9258	529.175350048	1.0
7.936	529.253478993	1.0
7.9462	529.331309454	1.0
7.9565	529.409601232	2.0
7.9667	529.486835243	2.0
7.977	529.564527037	0.0
7.9872	529.641169171	0.0
7.9974	529.717518501	1.0
8.0077	529.794320369	0.0
8.0179	529.8700846	0.0
