TL-DOS Lehrstuhlversuch
detector=R1407302
job_number=2015-11-03-015
irradiation_dose [mSv]=0.09

[BEGIN DATA]
time [sec] 	 temperature [K] 	 photoncount 
0.0	237.000659026	0.0
0.0102	237.912219195	0.0
0.0205	238.830380681	1.0
0.0307	239.737320962	0.0
0.041	240.650829102	2.0
0.0512	241.553172909	1.0
0.0614	242.453238376	0.0
0.0717	243.359821916	1.0
0.0819	244.255325751	1.0
0.0922	245.157314624	2.0
0.1024	246.048279946	0.0
0.1126	246.936995657	1.0
0.1229	247.832147249	0.0
0.1331	248.71635885	1.0
0.1434	249.606973714	4.0
0.1536	250.486704032	0.0
0.1638	251.364213107	4.0
0.1741	252.248076908	1.0
0.1843	253.121138669	3.0
0.1946	254.000522949	1.0
0.2048	254.869159936	2.0
0.215	255.73560369	0.0
0.2253	256.608322036	2.0
0.2355	257.470374556	1.0
0.2458	258.338669869	1.0
0.256	259.196353411	1.0
0.2662	260.051871377	0.0
0.2765	260.913584812	0.0
0.2867	261.764766917	0.0
0.297	262.622113093	0.0
0.3072	263.468981313	0.0
0.3174	264.313711263	0.0
0.3277	265.16455856	0.0
0.3379	266.005007324	0.0
0.3482	266.851542432	0.0
0.3584	267.687731709	0.0
0.3686	268.52180968	1.0
0.3789	269.361927858	0.0
0.3891	270.191778629	0.0
0.3994	271.027638995	0.0
0.4096	271.85328399	0.0
0.4198	272.676844303	0.0
0.4301	273.506368656	1.0
0.4403	274.325755074	0.0
0.4506	275.151075305	0.0
0.4608	275.966308981	1.0
0.471	276.779484262	0.0
0.4813	277.598548377	0.0
0.4915	278.407602396	0.0
0.5018	279.222515403	0.0
0.512	280.027469046	0.0
0.5222	280.83039025	0.0
0.5325	281.639126031	0.0
0.5427	282.437977941	0.0
0.553	283.242614958	0.0
0.5632	284.037418198	0.0
0.5734	284.830214628	1.0
0.5837	285.628752314	0.0
0.5939	286.417530763	0.0
0.6042	287.21202137	0.0
0.6144	287.996802203	1.0
0.6246	288.779601532	0.0
0.6349	289.568069719	0.0
0.6451	290.346901734	0.0
0.6554	291.131373876	0.0
0.6656	291.906258683	0.0
0.6758	292.679186974	0.0
0.6861	293.457712638	0.0
0.6963	294.226723642	0.0
0.7066	295.001303651	0.0
0.7168	295.766417221	0.0
0.727	296.529598946	0.0
0.7373	297.298307462	0.0
0.7475	298.057621297	0.0
0.7578	298.822433913	0.0
0.768	299.57789946	0.0
0.7782	300.331457523	0.0
0.7885	301.090472684	0.0
0.7987	301.84021163	0.0
0.809	302.595380019	0.0
0.8192	303.341319204	0.0
0.8294	304.085374958	0.0
0.8397	304.834818997	0.0
0.8499	305.575103794	1.0
0.8602	306.320749567	0.0
0.8704	307.057282518	0.0
0.8806	307.791955786	0.0
0.8909	308.531949395	0.0
0.9011	309.262899257	0.0
0.9114	309.999142495	0.0
0.9216	310.726387822	0.0
0.9318	311.451796918	0.0
0.9421	312.182459265	0.0
0.9523	312.904191906	0.0
0.9626	313.631151174	0.0
0.9728	314.349225994	0.0
0.983	315.065487738	0.0
0.9933	315.786936489	0.0
1.0035	316.499568138	1.0
1.0138	317.217360506	0.0
1.024	317.926380459	0.0
1.0342	318.633610197	0.0
1.0445	319.345961535	0.0
1.0547	320.049606955	0.0
1.065	320.758348017	0.0
1.0752	321.458427283	0.0
1.0854	322.156738909	0.0
1.0957	322.860107553	0.0
1.1059	323.554880058	0.0
1.1162	324.254683951	0.0
1.1264	324.945935271	0.0
1.1366	325.635441242	0.0
1.1469	326.329940462	0.0
1.1571	327.01595194	0.0
1.1674	327.70693136	0.0
1.1776	328.389466055	0.0
1.1878	329.070277409	0.0
1.1981	329.756019047	0.0
1.2083	330.433379974	0.0
1.2186	331.115646197	0.0
1.2288	331.789574183	0.0
1.239	332.461800559	0.0
1.2493	333.138895048	0.0
1.2595	333.807714506	1.0
1.2698	334.481377405	0.0
1.28	335.146807212	1.0
1.2902	335.810556865	0.0
1.3005	336.479113246	0.0
1.3107	337.139498942	0.0
1.321	337.804667005	1.0
1.3312	338.461705793	0.0
1.3414	339.117085615	0.0
1.3517	339.777211551	0.0
1.3619	340.429269836	0.0
1.3722	341.08605018	0.0
1.3824	341.73480376	0.0
1.3926	342.381919294	0.0
1.4029	343.033721094	0.0
1.4131	343.677556973	1.0
1.4234	344.326055369	0.0
1.4336	344.966628217	0.0
1.4438	345.605583674	1.0
1.4541	346.249166304	0.0
1.4643	346.884883463	0.0
1.4746	347.525204344	0.0
1.4848	348.157699618	0.0
1.495	348.788597896	0.0
1.5053	349.424064999	0.0
1.5155	350.051765815	0.0
1.5258	350.684012299	1.0
1.536	351.308531857	1.0
1.5462	351.931474557	1.0
1.5565	352.558928469	0.0
1.5667	353.178714026	1.0
1.577	353.802987932	1.0
1.5872	354.419632346	0.0
1.5974	355.034719787	0.0
1.6077	355.654261554	0.0
1.6179	356.266231663	0.0
1.6282	356.882633524	1.0
1.6384	357.4915021	0.0
1.6486	358.098833336	0.0
1.6589	358.71056273	0.0
1.6691	359.314815943	0.0
1.6794	359.923445024	2.0
1.6896	360.524635815	1.0
1.6998	361.124308651	1.0
1.7101	361.728324185	1.0
1.7203	362.324957812	1.0
1.7306	362.925912128	0.0
1.7408	363.519521949	0.0
1.751	364.111632958	0.0
1.7613	364.708031902	3.0
1.7715	365.297142026	3.0
1.7818	365.890518354	3.0
1.792	366.476642802	2.0
1.8022	367.061287337	1.0
1.8125	367.650165737	1.0
1.8227	368.231847228	2.0
1.833	368.817741127	3.0
1.8432	369.396474591	1.0
1.8534	369.973746804	2.0
1.8637	370.555199493	1.0
1.8739	371.129546026	2.0
1.8842	371.708051848	2.0
1.8944	372.279487528	1.0
1.9046	372.849480383	2.0
1.9149	373.423600999	0.0
1.9251	373.990705066	3.0
1.9354	374.561915975	3.0
1.9456	375.126145896	3.0
1.9558	375.688951185	2.0
1.9661	376.255832185	0.0
1.9763	376.815785114	1.0
1.9866	377.379793097	3.0
1.9968	377.936908123	4.0
2.007	378.492616481	2.0
2.0173	379.052349155	2.0
2.0275	379.605241122	0.0
2.0378	380.162137008	2.0
2.048	380.712226857	6.0
2.0582	381.260927776	2.0
2.0685	381.813602264	6.0
2.0787	382.359522306	4.0
2.089	382.909395779	7.0
2.0992	383.452549037	5.0
2.1094	383.99433088	4.0
2.1197	384.540036186	5.0
2.1299	385.079072218	3.0
2.1402	385.622011829	7.0
2.1504	386.158315967	6.0
2.1606	386.693265983	11.0
2.1709	387.232089988	4.0
2.1811	387.764328818	10.0
2.1914	388.300422003	5.0
2.2016	388.829963387	6.0
2.2118	389.358167725	10.0
2.2221	389.890197201	9.0
2.2323	390.41572454	7.0
2.2426	390.945057632	7.0
2.2528	391.46792154	2.0
2.263	391.989465262	4.0
2.2733	392.514785888	6.0
2.2835	393.033686369	5.0
2.2938	393.556344611	16.0
2.304	394.072615246	10.0
2.3142	394.587582342	8.0
2.3245	395.106278716	8.0
2.3347	395.618635902	11.0
2.345	396.134703464	13.0
2.3552	396.644463967	11.0
2.3654	397.152937368	20.0
2.3757	397.66509302	14.0
2.3859	398.170989422	10.0
2.3962	398.680549413	14.0
2.4064	399.183881875	14.0
2.4166	399.685943466	16.0
2.4269	400.191640876	16.0
2.4371	400.691157963	15.0
2.4474	401.194292441	16.0
2.4576	401.69127792	16.0
2.4678	402.187008554	17.0
2.4781	402.686329159	17.0
2.4883	403.179547374	16.0
2.4986	403.676337366	13.0
2.5088	404.167055897	13.0
2.519	404.656535406	9.0
2.5293	405.149559616	18.0
2.5395	405.636558388	23.0
2.5498	406.127083897	15.0
2.56	406.611614505	12.0
2.5702	407.094921716	18.0
2.5805	407.581728929	15.0
2.5907	408.062586685	12.0
2.601	408.546926705	13.0
2.6112	409.02534742	18.0
2.6214	409.502560164	13.0
2.6317	409.983228776	16.0
2.6419	410.458022953	12.0
2.6522	410.936255483	8.0
2.6624	411.40864335	12.0
2.6726	411.879838478	6.0
2.6829	412.354445896	9.0
2.6931	412.823252955	11.0
2.7034	413.295455011	8.0
2.7136	413.761886103	10.0
2.7238	414.227139497	14.0
2.7341	414.695762153	17.0
2.7443	415.158657592	16.0
2.7546	415.624905216	16.0
2.7648	416.085454648	7.0
2.775	416.544841233	14.0
2.7853	417.007554594	6.0
2.7955	417.464612957	10.0
2.8058	417.924981234	9.0
2.816	418.379723175	7.0
2.8262	418.833316931	12.0
2.8365	419.290195512	9.0
2.8467	419.741490404	9.0
2.857	420.196053474	9.0
2.8672	420.645061153	12.0
2.8774	421.092935127	9.0
2.8877	421.544052505	10.0
2.8979	421.989656604	10.0
2.9082	422.438487668	9.0
2.9184	422.881833396	6.0
2.9286	423.324059714	14.0
2.9389	423.769488536	10.0
2.9491	424.209473602	6.0
2.9594	424.652644942	7.0
2.9696	425.090400114	12.0
2.9798	425.527049993	11.0
2.9901	425.966861993	8.0
3.0003	426.401298881	16.0
3.0106	426.838881864	11.0
3.0208	427.271116978	19.0
3.031	427.702260736	5.0
3.0413	428.13652674	10.0
3.0515	428.565485413	10.0
3.0618	428.997550509	11.0
3.072	429.424335172	15.0
3.0822	429.85004224	12.0
3.0925	430.278832184	18.0
3.1027	430.702381721	14.0
3.113	431.12899851	17.0
3.1232	431.550401451	11.0
3.1334	431.970740386	9.0
3.1437	432.394123322	15.0
3.1539	432.812331933	9.0
3.1642	433.233569117	11.0
3.1744	433.6496582	18.0
3.1846	434.064696694	19.0
3.1949	434.482740804	17.0
3.2051	434.895675837	14.0
3.2154	435.311601253	13.0
3.2256	435.722443484	16.0
3.2358	436.132248375	20.0
3.2461	436.545020982	10.0
3.2563	436.952748936	9.0
3.2666	437.363429564	18.0
3.2768	437.769091107	16.0
3.287	438.17372839	24.0
3.2973	438.581295966	23.0
3.3075	438.983882502	23.0
3.3178	439.38938448	23.0
3.328	439.789930663	17.0
3.3382	440.189465501	25.0
3.3485	440.591893682	19.0
3.3587	440.989403633	15.0
3.369	441.389792262	9.0
3.3792	441.785287589	23.0
3.3894	442.179784324	17.0
3.3997	442.577137916	14.0
3.4099	442.969635298	21.0
3.4202	443.364975058	15.0
3.4304	443.755483219	19.0
3.4406	444.145005381	17.0
3.4509	444.537348375	18.0
3.4611	444.924896395	13.0
3.4714	445.315250952	18.0
3.4816	445.700834835	16.0
3.4918	446.085445153	13.0
3.5021	446.472840732	21.0
3.5123	446.855501802	13.0
3.5226	447.240934018	16.0
3.5328	447.621655719	15.0
3.543	448.00141613	22.0
3.5533	448.383926682	15.0
3.5635	448.761762425	4.0
3.5738	449.14233437	19.0
3.584	449.5182552	16.0
3.5942	449.893226862	13.0
3.6045	450.270913985	16.0
3.6147	450.643985249	14.0
3.625	451.019758212	14.0
3.6352	451.390938709	16.0
3.6454	451.761182008	17.0
3.6557	452.134106526	15.0
3.6659	452.50247339	17.0
3.6762	452.873507885	17.0
3.6864	453.240007825	14.0
3.6966	453.605582385	9.0
3.7069	453.973804353	14.0
3.7171	454.33752614	8.0
3.7274	454.703881919	14.0
3.7376	455.065760323	12.0
3.7478	455.426725016	16.0
3.7581	455.790303734	12.0
3.7683	456.149439017	15.0
3.7786	456.511175078	10.0
3.7888	456.868490224	16.0
3.799	457.22490318	14.0
3.8093	457.583897199	22.0
3.8195	457.938503814	15.0
3.8298	458.295678411	14.0
3.84	458.648487841	12.0
3.8502	459.000406457	17.0
3.8605	459.354873589	13.0
3.8707	459.705008643	17.0
3.881	460.057679296	14.0
3.8912	460.406039826	17.0
3.9014	460.753520776	14.0
3.9117	461.103518105	16.0
3.9219	461.449237983	14.0
3.9322	461.797461487	11.0
3.9424	462.141429217	16.0
3.9526	462.484528459	20.0
3.9629	462.83011235	14.0
3.9731	463.171472726	22.0
3.9834	463.515305159	17.0
3.9936	463.854935483	12.0
4.0038	464.19370827	13.0
4.0141	464.534934375	9.0
4.0243	464.871990224	16.0
4.0346	465.211486956	13.0
4.0448	465.546834568	13.0
4.055	465.881335457	10.0
4.0653	466.218258726	13.0
4.0755	466.551064327	15.0
4.0858	466.886280032	14.0
4.096	467.217398937	11.0
4.1062	467.547681796	13.0
4.1165	467.880356489	9.0
4.1267	468.208965437	6.0
4.137	468.539954098	14.0
4.1472	468.866897619	15.0
4.1574	469.193015637	10.0
4.1677	469.521495328	16.0
4.1779	469.845960543	13.0
4.1882	470.172775462	11.0
4.1984	470.495596251	13.0
4.2086	470.817601946	14.0
4.2189	471.141939534	9.0
4.2291	471.462313267	9.0
4.2394	471.785007076	14.0
4.2496	472.10375712	11.0
4.2598	472.421702348	18.0
4.2701	472.741950064	13.0
4.2803	473.05828391	18.0
4.2906	473.376908575	11.0
4.3008	473.691639205	14.0
4.311	474.005575168	16.0
4.3213	474.321784586	10.0
4.3315	474.634129486	11.0
4.3418	474.948736319	15.0
4.352	475.259498221	6.0
4.3622	475.569475476	10.0
4.3725	475.881697517	12.0
4.3827	476.190103772	11.0
4.393	476.500743437	16.0
4.4032	476.807586656	15.0
4.4134	477.113655122	13.0
4.4237	477.421940067	15.0
4.4339	477.726457344	13.0
4.4442	478.033179867	12.0
4.4544	478.336153816	14.0
4.4646	478.638362782	15.0
4.4749	478.942760279	14.0
4.4851	479.243437616	11.0
4.4954	479.546292392	15.0
4.5056	479.845445863	9.0
4.5158	480.143843998	9.0
4.5261	480.444403065	3.0
4.5363	480.741288885	9.0
4.5466	481.040324686	15.0
4.5568	481.335705855	11.0
4.567	481.630341212	13.0
4.5773	481.927110253	14.0
4.5875	482.220252366	10.0
4.5978	482.515517348	8.0
4.608	482.807173784	9.0
4.6182	483.098093812	10.0
4.6285	483.391120619	12.0
4.6387	483.680566232	14.0
4.649	483.972107946	14.0
4.6592	484.260086617	15.0
4.6694	484.547338166	7.0
4.6797	484.836669927	15.0
4.6899	485.122465654	6.0
4.7002	485.410331049	12.0
4.7104	485.694678331	12.0
4.7206	485.978307661	10.0
4.7309	486.263990971	13.0
4.7411	486.546182836	9.0
4.7514	486.830418271	16.0
4.7616	487.111179956	14.0
4.7718	487.391232742	10.0
4.7821	487.673313608	7.0
4.7923	487.951947055	16.0
4.8026	488.232598304	12.0
4.8128	488.509819606	13.0
4.823	488.786340948	12.0
4.8333	489.064864796	12.0
4.8435	489.339984697	16.0
4.8538	489.617096955	12.0
4.864	489.890822518	13.0
4.8742	490.163856947	9.0
4.8845	490.438868631	20.0
4.8947	490.710519292	11.0
4.905	490.984137186	9.0
4.9152	491.25441109	15.0
4.9254	491.524002577	13.0
4.9357	491.795546385	9.0
4.9459	492.063771552	8.0
4.9562	492.333939145	15.0
4.9664	492.600804917	10.0
4.9766	492.866996876	12.0
4.9869	493.135116538	10.0
4.9971	493.399959406	11.0
5.0074	493.666720207	8.0
5.0176	493.930220822	12.0
5.0278	494.193056121	11.0
5.0381	494.457794815	8.0
5.0483	494.719298035	8.0
5.0586	494.982695003	11.0
5.0688	495.242872896	11.0
5.079	495.502393862	10.0
5.0893	495.763794222	9.0
5.0995	496.021999907	6.0
5.1098	496.28207546	10.0
5.12	496.538972529	6.0
5.1302	496.795220956	10.0
5.1405	497.053325077	12.0
5.1507	497.308274809	10.0
5.161	497.565070829	12.0
5.1712	497.818728447	9.0
5.1814	498.071745601	9.0
5.1917	498.326595049	6.0
5.2019	498.578329884	11.0
5.2122	498.831887727	8.0
5.2224	499.082346742	6.0
5.2326	499.33217337	6.0
5.2429	499.583809186	13.0
5.2531	499.832369664	8.0
5.2634	500.082730162	5.0
5.2736	500.330030908	15.0
5.2838	500.576707242	9.0
5.2941	500.82516995	10.0
5.3043	501.0705961	8.0
5.3146	501.317799572	8.0
5.3248	501.561981874	12.0
5.335	501.805547638	5.0
5.3453	502.050877251	10.0
5.3555	502.293208597	8.0
5.3658	502.537294851	3.0
5.376	502.778398035	8.0
5.3862	503.018892453	7.0
5.3965	503.261128478	11.0
5.4067	503.500404044	8.0
5.417	503.741412391	9.0
5.4272	503.979475281	5.0
5.4374	504.216937084	13.0
5.4477	504.456118532	4.0
5.4579	504.692376852	13.0
5.4682	504.930346101	14.0
5.4784	505.165407038	9.0
5.4886	505.399874465	9.0
5.4989	505.636039854	8.0
5.5091	505.869318974	8.0
5.5194	506.10428745	6.0
5.5296	506.336384286	12.0
5.5398	506.567895098	4.0
5.5501	506.801082459	5.0
5.5603	507.031419948	9.0
5.5706	507.26342549	2.0
5.5808	507.492595603	7.0
5.591	507.721187081	3.0
5.6013	507.951433968	6.0
5.6115	508.178866919	5.0
5.6218	508.407946889	5.0
5.632	508.634227185	5.0
5.6422	508.859936142	8.0
5.6525	509.087279634	5.0
5.6627	509.311844673	5.0
5.673	509.538035962	5.0
5.6832	509.761462881	3.0
5.6934	509.984325666	8.0
5.7037	510.208802374	8.0
5.7139	510.430535666	6.0
5.7242	510.6538747	9.0
5.7344	510.874484223	4.0
5.7446	511.094536726	5.0
5.7549	511.316182799	0.0
5.7651	511.535120051	3.0
5.7754	511.755642798	5.0
5.7856	511.973470452	2.0
5.7958	512.19074811	4.0
5.8061	512.409599244	2.0
5.8163	512.625775714	1.0
5.8266	512.843517686	9.0
5.8368	513.05859855	5.0
5.847	513.273136353	4.0
5.8573	513.489227792	3.0
5.8675	513.702678294	6.0
5.8778	513.917674556	1.0
5.888	514.130043267	2.0
5.8982	514.341875766	5.0
5.9085	514.555242308	1.0
5.9187	514.766001215	3.0
5.929	514.978286392	3.0
5.9392	515.18797715	5.0
5.9494	515.397138457	2.0
5.9597	515.607814463	2.0
5.9699	515.815915718	2.0
5.9802	516.025523995	2.0
5.9904	516.232570568	2.0
6.0006	516.439094368	3.0
6.0109	516.647113766	0.0
6.0211	516.852590879	3.0
6.0314	517.059556012	2.0
6.0416	517.263991745	2.0
6.0518	517.467911295	3.0
6.0621	517.673307585	1.0
6.0723	517.876193648	3.0
6.0826	518.080548967	5.0
6.0928	518.282406781	0.0
6.103	518.483754921	0.0
6.1133	518.68656118	1.0
6.1235	518.886888866	2.0
6.1338	519.08866728	2.0
6.144	519.287979682	1.0
6.1542	519.486788838	2.0
6.1645	519.687037726	4.0
6.1747	519.884839295	3.0
6.185	520.084073299	1.0
6.1952	520.280872387	1.0
6.2054	520.477174575	0.0
6.2157	520.67489834	3.0
6.2259	520.870205647	3.0
6.2362	521.066927325	0.0
6.2464	521.261244793	3.0
6.2566	521.455071625	1.0
6.2669	521.650302109	1.0
6.2771	521.843146605	2.0
6.2874	522.037387639	0.0
6.2976	522.229254778	0.0
6.3078	522.420637469	1.0
6.3181	522.613406111	0.0
6.3283	522.803818854	1.0
6.3386	522.995610523	0.0
6.3488	523.185058233	1.0
6.359	523.374027603	0.0
6.3693	523.564365448	1.0
6.3795	523.7523771	0.0
6.3898	523.941750292	0.0
6.4	524.12880908	0.0
6.4102	524.315395562	0.0
6.4205	524.503333261	2.0
6.4307	524.688974101	0.0
6.441	524.875959311	1.0
6.4512	525.060659303	3.0
6.4614	525.244892943	1.0
6.4717	525.430460763	0.0
6.4819	525.613760686	0.0
6.4922	525.798388027	0.0
6.5024	525.980758967	0.0
6.5126	526.162669435	1.0
6.5229	526.345897259	3.0
6.5331	526.526885785	0.0
6.5434	526.709184989	0.0
6.5536	526.889256245	0.0
6.5638	527.068872837	1.0
6.5741	527.249790172	0.0
6.5843	527.428496446	0.0
6.5946	527.608496872	0.0
6.6048	527.786297443	0.0
6.615	527.963649084	0.0
6.6253	528.142285065	1.0
6.6355	528.318737868	0.0
6.6458	528.496468502	0.0
6.656	528.672027022	0.0
6.6662	528.847142272	0.0
6.6765	529.023525667	0.0
6.6867	529.197753414	1.0
6.697	529.373242879	1.0
6.7072	529.546587619	1.0
6.7174	529.71949468	0.0
6.7277	529.893653894	0.0
6.7379	530.065684642	0.0
6.7482	530.238961199	0.0
6.7584	530.410120076	0.0
6.7686	530.580846791	0.0
6.7789	530.752809872	1.0
6.7891	530.922671325	0.0
6.7994	531.093762878	0.0
6.8096	531.262763455	1.0
6.8198	531.43133732	1.0
6.8301	531.601131959	0.0
6.8403	531.768851473	0.0
6.8506	531.937785574	0.0
6.8608	532.104655067	0.0
6.871	532.271103229	0.0
6.8813	532.438756771	0.0
6.8915	532.604361355	1.0
6.9018	532.77116521	0.0
6.912	532.935930491	1.0
6.9222	533.100279755	0.0
6.9325	533.265819199	0.0
6.9427	533.429335522	0.0
6.953	533.594035993	0.0
6.9632	533.756723597	2.0
6.9734	533.919000429	0.0
6.9837	534.082452434	0.0
6.9939	534.243906829	1.0
7.0042	534.40653044	0.0
7.0144	534.567166566	0.0
7.0246	534.7273971	1.0
7.0349	534.888787987	0.0
7.0451	535.048206455	0.0
7.0554	535.208779395	1.0
7.0656	535.367389912	1.0
7.0758	535.525599951	0.0
7.0861	535.684955712	0.0
7.0963	535.842363925	0.0
7.1066	536.000912053	0.0
7.1168	536.157522504	1.0
7.127	536.313737526	0.0
7.1373	536.471083823	0.0
7.1475	536.626507131	0.0
7.1578	536.78305598	2.0
7.168	536.937691585	0.0
7.1782	537.091936748	0.0
7.1885	537.247298921	1.0
7.1987	537.400762352	0.0
7.209	537.555337132	0.0
7.2192	537.708022794	0.0
7.2294	537.860322938	2.0
7.2397	538.013726006	0.0
7.2499	538.165254276	0.0
7.2602	538.317879879	1.0
7.2704	538.468640187	0.0
7.2806	538.619019838	1.0
7.2909	538.770488505	0.0
7.3011	538.920106015	1.0
7.3114	539.070807022	0.0
7.3216	539.219666254	1.0
7.3318	539.368149629	0.0
7.3421	539.517708288	0.0
7.3523	539.665439133	1.0
7.3626	539.814239811	1.0
7.3728	539.96122194	0.0
7.383	540.107832951	0.0
7.3933	540.255505687	0.0
7.4035	540.401373658	0.0
7.4138	540.548297971	0.0
7.424	540.693426667	0.0
7.4342	540.838188925	0.0
7.4445	540.983999519	0.0
7.4547	541.128028105	0.0
7.465	541.273099715	1.0
7.4752	541.416398349	1.0
7.4854	541.559335166	0.0
7.4957	541.7033071	2.0
7.5059	541.845519497	0.0
7.5162	541.988761765	0.0
7.5264	542.130253414	0.0
7.5366	542.271387809	1.0
7.5469	542.413544268	2.0
7.5571	542.553963378	0.0
7.5674	542.695399372	0.0
7.5776	542.835106822	0.0
7.5878	542.974461524	1.0
7.5981	543.114825401	2.0
7.6083	543.253473837	1.0
7.6186	543.393126334	0.0
7.6288	543.531072084	0.0
7.639	543.668669533	1.0
7.6493	543.807263433	0.0
7.6595	543.944163523	2.0
7.6698	544.082055013	1.0
7.68	544.218261278	0.0
7.6902	544.354123634	0.0
7.7005	544.490969875	0.0
7.7107	544.626143666	0.0
7.721	544.762296355	0.0
7.7312	544.896785069	0.0
7.7414	545.030934212	0.0
7.7517	545.166054832	0.0
7.7619	545.299524092	2.0
7.7722	545.433959906	0.0
7.7824	545.566752729	0.0
7.7926	545.699210261	0.0
7.8029	545.832627021	0.0
7.8131	545.964413243	0.0
7.8234	546.097153832	0.0
7.8336	546.228272148	0.0
7.8438	546.359059401	0.0
7.8541	546.490793786	0.0
7.8643	546.620918194	3.0
7.8746	546.751984935	1.0
7.8848	546.881449858	0.0
7.895	547.010587894	0.0
7.9053	547.140661119	0.0
7.9155	547.269144669	0.0
7.9258	547.398558668	0.0
7.936	547.526391049	0.0
7.9462	547.653900664	0.0
7.9565	547.782333675	0.0
7.9667	547.909197058	0.0
7.977	548.036979156	0.0
7.9872	548.163199581	0.0
7.9974	548.28910131	1.0
8.0077	548.415914791	1.0
8.0179	548.541178436	0.0
8.0282	548.667349212	0.0
8.0384	548.791978007	0.0
8.0486	548.916292125	1.0
8.0589	549.041506498	0.0
8.0691	549.165190578	0.0
8.0794	549.28977035	2.0
8.0896	549.412827586	0.0
