TL-DOS Lehrstuhlversuch
detector=R1408101
job_number=2015-11-17-004
irradiation_dose [mSv]=0.05

[BEGIN DATA]
time [sec] 	 temperature [K] 	 photoncount 
0.0	187.776051573	0.0
0.0102	188.887012122	0.0
0.0205	190.005568589	0.0
0.0307	191.110011003	1.0
0.041	192.222004769	0.0
0.0512	193.319967291	1.0
0.0614	194.414719851	0.0
0.0717	195.516957509	0.0
0.0819	196.605287028	0.0
0.0922	197.701057731	1.0
0.1024	198.783001894	0.0
0.1126	199.861782925	0.0
0.1229	200.947939854	2.0
0.1331	202.020391551	2.0
0.1434	203.100175872	1.0
0.1536	204.166335371	0.0
0.1638	205.229377884	2.0
0.1741	206.299688688	1.0
0.1843	207.356494208	1.0
0.1946	208.420525374	0.0
0.2048	209.471130493	0.0
0.215	210.518664102	1.0
0.2253	211.573359962	0.0
0.2355	212.614747569	1.0
0.2458	213.663255406	0.0
0.256	214.698533072	0.0
0.2662	215.730784037	0.0
0.2765	216.770092763	1.0
0.2867	217.796287392	0.0
0.297	218.829498373	1.0
0.3072	219.849672199	0.0
0.3174	220.866863482	0.0
0.3277	221.891009558	0.0
0.3379	222.902232862	0.0
0.3482	223.920370155	0.0
0.3584	224.925660494	0.0
0.3686	225.928011803	0.0
0.3789	226.937216441	0.0
0.3891	227.933686839	1.0
0.3994	228.936970356	1.0
0.4096	229.927594346	0.0
0.4198	230.915322184	0.0
0.4301	231.909803367	0.0
0.4403	232.891736091	0.0
0.4506	233.880382537	0.0
0.4608	234.856554148	0.0
0.471	235.829871859	0.0
0.4813	236.809844389	0.0
0.4915	237.777451533	1.0
0.5018	238.75167445	0.0
0.512	239.71360453	0.0
0.5222	240.672722346	0.0
0.5325	241.638397893	0.0
0.5427	242.591888453	1.0
0.553	243.55189827	0.0
0.5632	244.49979459	0.0
0.5734	245.444919676	0.0
0.5837	246.39650682	0.0
0.5939	247.336086748	0.0
0.6042	248.28209082	0.0
0.6144	249.216158122	1.0
0.6246	250.14749462	1.0
0.6349	251.0851989	1.0
0.6451	252.011071139	0.0
0.6554	252.943273799	0.0
0.6656	253.863713837	0.0
0.6758	254.781462911	0.0
0.6861	255.705486866	0.0
0.6963	256.617851399	0.0
0.7066	257.536453999	0.0
0.7168	258.443465583	0.0
0.727	259.347825462	1.0
0.7373	260.258368677	0.0
0.7475	261.157422571	1.0
0.7578	262.062623524	0.0
0.768	262.956402565	0.0
0.7782	263.847568585	0.0
0.7885	264.744827733	0.0
0.7987	265.63076518	0.0
0.809	266.522760004	0.0
0.8192	267.403499552	0.0
0.8294	268.281664203	0.0
0.8397	269.165833087	0.0
0.8499	270.038845443	0.0
0.8602	270.917826806	0.0
0.8704	271.785717097	0.0
0.8806	272.651070057	0.0
0.8909	273.522339653	2.0
0.9011	274.382615486	0.0
0.9114	275.248773242	0.0
0.9216	276.104001737	1.0
0.9318	276.956729917	0.0
0.9421	277.815288415	0.0
0.9523	278.66301354	1.0
0.9626	279.516534775	0.0
0.9728	280.359286199	0.0
0.983	281.199573785	0.0
0.9933	282.045606629	0.0
1.0035	282.88096415	0.0
1.0138	283.722033221	0.0
1.024	284.552489603	1.0
1.0342	285.380518093	0.0
1.0445	286.214208022	0.0
1.0547	287.037378372	0.0
1.065	287.866176946	1.0
1.0752	288.68451766	0.0
1.0854	289.500465904	0.0
1.0957	290.321992991	0.0
1.1059	291.133153971	0.0
1.1162	291.949861064	0.0
1.1264	292.756262869	4.0
1.1366	293.560307107	2.0
1.1469	294.369848798	0.0
1.1571	295.169175615	0.0
1.1674	295.973967631	0.0
1.1776	296.768604704	0.0
1.1878	297.560918606	1.0
1.1981	298.358649758	0.0
1.2083	299.146315062	0.0
1.2186	299.939365833	0.0
1.2288	300.722409813	0.0
1.239	301.503164515	0.0
1.2493	302.289257433	0.0
1.2595	303.065431356	1.0
1.2698	303.846912176	1.0
1.28	304.618532197	0.0
1.2902	305.387896337	0.0
1.3005	306.162520815	0.0
1.3107	306.927371006	0.0
1.321	307.697450672	0.0
1.3312	308.457813399	0.0
1.3414	309.215953157	2.0
1.3517	309.979276508	1.0
1.3619	310.732968172	1.0
1.3722	311.491813017	1.0
1.3824	312.241082684	0.0
1.3926	312.988161815	1.0
1.4029	313.740348914	0.0
1.4131	314.483044844	0.0
1.4234	315.230818774	0.0
1.4336	315.969157221	2.0
1.4438	316.705337089	0.0
1.4541	317.446550404	0.0
1.4643	318.178411019	1.0
1.4746	318.91527555	0.0
1.4848	319.642842254	0.0
1.495	320.36828187	0.0
1.5053	321.0986815	3.0
1.5155	321.819864878	0.0
1.5258	322.545979169	0.0
1.536	323.26293128	0.0
1.5462	323.977787337	0.0
1.5565	324.697531044	0.0
1.5667	325.408192957	0.0
1.577	326.123713845	1.0
1.5872	326.830206222	2.0
1.5974	327.534633124	0.0
1.6077	328.24387637	0.0
1.6179	328.944170317	0.0
1.6282	329.649252351	1.0
1.6384	330.345437592	1.0
1.6486	331.039587492	1.0
1.6589	331.738483469	0.0
1.6691	332.428560711	2.0
1.6794	333.123356185	0.0
1.6896	333.809384663	1.0
1.6998	334.493407494	1.0
1.7101	335.182107161	2.0
1.7203	335.86211675	0.0
1.7306	336.546775736	2.0
1.7408	337.22279563	0.0
1.751	337.896839137	1.0
1.7613	338.57549125	1.0
1.7715	339.245580065	1.0
1.7818	339.920250447	2.0
1.792	340.586407773	2.0
1.8022	341.250617547	0.0
1.8125	341.91936869	1.0
1.8227	342.579681467	4.0
1.833	343.24450897	2.0
1.8432	343.900947615	1.0
1.8534	344.555467121	0.0
1.8637	345.214461742	0.0
1.8739	345.865141106	1.0
1.8842	346.520269328	0.0
1.8944	347.167131081	1.0
1.9046	347.812101692	0.0
1.9149	348.46148213	4.0
1.9251	349.102668623	2.0
1.9354	349.748239071	1.0
1.9456	350.385663649	3.0
1.9558	351.021224675	1.0
1.9661	351.661131193	0.0
1.9763	352.29296331	0.0
1.9866	352.929115422	3.0
1.9968	353.557240506	5.0
2.007	354.183529226	2.0
2.0173	354.814100041	2.0
2.0275	355.436714253	1.0
2.0378	356.063585435	2.0
2.048	356.682546697	0.0
2.0582	357.299698387	1.0
2.0685	357.921069698	2.0
2.0787	358.534600487	3.0
2.089	359.152326141	3.0
2.0992	359.762257273	3.0
2.1094	360.370405233	6.0
2.1197	360.982711255	1.0
2.1299	361.58729114	1.0
2.1402	362.196004691	0.0
2.1504	362.797037436	0.0
2.1606	363.396313024	0.0
2.1709	363.99968601	1.0
2.1811	364.595445578	2.0
2.1914	365.195278505	3.0
2.2016	365.787542683	4.0
2.2118	366.378075339	1.0
2.2221	366.972645615	0.0
2.2323	367.559713547	2.0
2.2426	368.150795411	1.0
2.2528	368.734418948	1.0
2.263	369.316336224	0.0
2.2733	369.902232215	2.0
2.2835	370.480735315	3.0
2.2938	371.063193786	3.0
2.304	371.638302741	4.0
2.3142	372.211730329	1.0
2.3245	372.789078585	5.0
2.3347	373.359141806	2.0
2.345	373.933102694	2.0
2.3552	374.499821288	6.0
2.3654	375.064883044	6.0
2.3757	375.63380827	3.0
2.3859	376.195554744	4.0
2.3962	376.76114202	4.0
2.4064	377.319592661	2.0
2.4166	377.876410637	3.0
2.4269	378.437035718	4.0
2.4371	378.990586778	1.0
2.4474	379.547922606	7.0
2.4576	380.098225918	2.0
2.4678	380.646920383	3.0
2.4781	381.199366411	2.0
2.4883	381.744841622	3.0
2.4986	382.294046384	4.0
2.5088	382.836321229	4.0
2.519	383.377010698	7.0
2.5293	383.921396998	3.0
2.5395	384.45891418	1.0
2.5498	385.000106502	6.0
2.56	385.534470008	3.0
2.5702	386.067271269	1.0
2.5805	386.603715426	2.0
2.5907	387.13339068	3.0
2.601	387.666687456	2.0
2.6112	388.193255044	6.0
2.6214	388.718283177	6.0
2.6317	389.246901061	6.0
2.6419	389.768848793	2.0
2.6522	390.294365214	5.0
2.6624	390.813250619	7.0
2.6726	391.330619029	8.0
2.6829	391.851524818	9.0
2.6931	392.365857768	5.0
2.7034	392.883707342	7.0
2.7136	393.39502264	5.0
2.7238	393.904843076	5.0
2.7341	394.418149283	5.0
2.7443	394.924978543	7.0
2.7546	395.435273123	9.0
2.7648	395.939128757	10.0
2.775	396.441511337	9.0
2.7853	396.947328834	10.0
2.7955	397.446763877	10.0
2.8058	397.949613684	6.0
2.816	398.446118484	6.0
2.8262	398.94117172	6.0
2.8365	399.439609761	8.0
2.8467	399.931758462	8.0
2.857	400.427272109	9.0
2.8672	400.916533317	7.0
2.8774	401.404364139	10.0
2.8877	401.895530384	6.0
2.8979	402.380499046	5.0
2.9082	402.868783561	5.0
2.9184	403.350906855	6.0
2.9286	403.831620632	4.0
2.9389	404.31562117	12.0
2.9491	404.793514542	14.0
2.9594	405.274675393	9.0
2.9696	405.74976491	7.0
2.9798	406.223465473	11.0
2.9901	406.700404846	12.0
3.0003	407.171326152	9.0
3.0106	407.645467266	9.0
3.0208	408.113625623	11.0
3.031	408.580415289	5.0
3.0413	409.050396513	6.0
3.0515	409.51444747	8.0
3.0618	409.98167126	8.0
3.072	410.442999576	8.0
3.0822	410.902979169	9.0
3.0925	411.366103759	13.0
3.1027	411.823384599	6.0
3.113	412.283791983	4.0
3.1232	412.738389902	7.0
3.1334	413.191658776	3.0
3.1437	413.648026764	3.0
3.1539	414.098636257	6.0
3.1642	414.55232668	6.0
3.1744	415.000292395	7.0
3.1846	415.446948454	4.0
3.1949	415.896658412	3.0
3.2051	416.340693888	4.0
3.2154	416.787765346	6.0
3.2256	417.229195613	4.0
3.2358	417.669335332	4.0
3.2461	418.112484397	2.0
3.2563	418.550041764	5.0
3.2666	418.990590822	7.0
3.2768	419.42558099	5.0
3.287	419.859299436	4.0
3.2973	420.295983325	7.0
3.3075	420.727157095	5.0
3.3178	421.161278908	2.0
3.328	421.589922932	4.0
3.3382	422.017313787	2.0
3.3485	422.447626821	4.0
3.3587	422.872510125	3.0
3.369	423.300298463	4.0
3.3792	423.722688927	7.0
3.3894	424.143844505	4.0
3.3997	424.567879631	4.0
3.4099	424.98656424	3.0
3.4202	425.408111503	8.0
3.4304	425.824339641	3.0
3.4406	426.239350911	4.0
3.4509	426.657199717	3.0
3.4611	427.069776067	4.0
3.4714	427.485173305	6.0
3.4816	427.895329022	2.0
3.4918	428.304285622	4.0
3.5021	428.716038362	6.0
3.5123	429.122595567	2.0
3.5226	429.531932505	7.0
3.5328	429.936104392	5.0
3.543	430.339094656	6.0
3.5533	430.744840266	5.0
3.5635	431.145466139	5.0
3.5738	431.548831193	3.0
3.584	431.947106548	4.0
3.5942	432.344217519	13.0
3.6045	432.744043639	10.0
3.6147	433.138824714	5.0
3.625	433.536305007	2.0
3.6352	433.928769856	7.0
3.6454	434.32008731	7.0
3.6557	434.714080299	5.0
3.6659	435.103101847	6.0
3.6762	435.494783234	8.0
3.6864	435.881522347	8.0
3.6966	436.267130805	6.0
3.7069	436.655375764	6.0
3.7171	437.038721812	7.0
3.7274	437.424688893	9.0
3.7376	437.805785805	6.0
3.7478	438.185768556	8.0
3.7581	438.568349345	9.0
3.7683	438.946102693	8.0
3.7786	439.326438836	10.0
3.7888	439.701975862	10.0
3.799	440.07641498	5.0
3.8093	440.453414234	8.0
3.8195	440.825656475	13.0
3.8298	441.200443831	6.0
3.84	441.570502083	11.0
3.8502	441.939478447	8.0
3.8605	442.310977596	9.0
3.8707	442.677789133	5.0
3.881	443.047108652	8.0
3.8912	443.411768063	9.0
3.9014	443.775361369	10.0
3.9117	444.141440654	4.0
3.9219	444.502900716	6.0
3.9322	444.866832172	5.0
3.9424	445.226171505	9.0
3.9526	445.584460288	10.0
3.9629	445.945198781	11.0
3.9731	446.301385441	7.0
3.9834	446.66000744	4.0
3.9936	447.014104312	6.0
4.0038	447.367165959	8.0
4.0141	447.722641578	11.0
4.0243	448.073631772	10.0
4.0346	448.427021774	10.0
4.0448	448.775952667	8.0
4.055	449.123863439	7.0
4.0653	449.474152965	13.0
4.0755	449.820022504	13.0
4.0858	450.16825684	5.0
4.096	450.512097122	7.0
4.1062	450.854932165	1.0
4.1165	451.200111258	9.0
4.1267	451.540934849	12.0
4.137	451.884088736	9.0
4.1472	452.222912675	6.0
4.1574	452.56074604	9.0
4.1677	452.900889258	5.0
4.1779	453.236740515	6.0
4.1882	453.574888073	5.0
4.1984	453.908768853	11.0
4.2086	454.241673511	10.0
4.2189	454.576854322	5.0
4.2291	454.907805789	7.0
4.2394	455.241020056	7.0
4.2496	455.570029793	10.0
4.2598	455.898077649	9.0
4.2701	456.228368451	7.0
4.2803	456.554491612	5.0
4.2906	456.88284456	10.0
4.3008	457.207054318	4.0
4.311	457.530316229	5.0
4.3213	457.855788364	5.0
4.3315	458.177153659	5.0
4.3418	458.500716211	6.0
4.352	458.820196019	2.0
4.3622	459.138741808	7.0
4.3725	459.459465575	8.0
4.3827	459.776142419	6.0
4.393	460.094984462	7.0
4.4032	460.409803326	9.0
4.4134	460.723701797	10.0
4.4237	461.039746471	10.0
4.4339	461.351803263	11.0
4.4442	461.665993666	7.0
4.4544	461.976219585	8.0
4.4646	462.285538539	7.0
4.4749	462.596972384	6.0
4.4851	462.904476528	10.0
4.4954	463.214083154	5.0
4.5056	463.519783135	5.0
4.5158	463.824589383	9.0
4.5261	464.131479668	7.0
4.5363	464.434497582	4.0
4.5466	464.739587306	10.0
4.5568	465.040827378	6.0
4.567	465.341186757	12.0
4.5773	465.643599768	1.0
4.5875	465.942196903	9.0
4.5978	466.242835621	7.0
4.608	466.539680852	3.0
4.6182	466.835658237	5.0
4.6285	467.133659294	5.0
4.6387	467.427900146	7.0
4.649	467.724152796	7.0
4.6592	468.016667302	3.0
4.6694	468.308326623	8.0
4.6797	468.601980093	3.0
4.6899	468.891928215	11.0
4.7002	469.183858786	3.0
4.7104	469.472105749	10.0
4.7206	469.759510004	4.0
4.7309	470.048879314	4.0
4.7411	470.334597334	8.0
4.7514	470.622268881	4.0
4.7616	470.906310561	7.0
4.7718	471.189521826	5.0
4.7821	471.474669479	14.0
4.7923	471.756219112	12.0
4.8026	472.03969377	8.0
4.8128	472.319591518	5.0
4.823	472.598670967	7.0
4.8333	472.879658553	8.0
4.8435	473.157100611	6.0
4.8538	473.43643961	6.0
4.864	473.712253883	7.0
4.8742	473.987261796	7.0
4.8845	474.264150007	3.0
4.8947	474.537544416	6.0
4.905	474.812808091	6.0
4.9152	475.084598464	3.0
4.9254	475.35559424	6.0
4.9357	475.628442882	7.0
4.9459	475.897848694	4.0
4.9562	476.169096502	7.0
4.9664	476.436921679	6.0
4.9766	476.703963853	5.0
4.9869	476.972831861	5.0
4.9971	477.238307266	9.0
5.0074	477.505597794	7.0
5.0176	477.769515625	6.0
5.0278	478.032661875	4.0
5.0381	478.297607323	6.0
5.0483	478.559209664	4.0
5.0586	478.822600646	8.0
5.0688	479.082668135	2.0
5.079	479.3419753	7.0
5.0893	479.603055414	8.0
5.0995	479.860841195	5.0
5.1098	480.120389521	4.0
5.12	480.376662843	10.0
5.1302	480.632186932	6.0
5.1405	480.889458105	4.0
5.1507	481.143483005	5.0
5.161	481.399244738	9.0
5.1712	481.651779245	5.0
5.1814	481.903575451	8.0
5.1917	482.157093251	7.0
5.2019	482.40741214	2.0
5.2122	482.659442522	8.0
5.2224	482.90829276	6.0
5.2326	483.156415469	6.0
5.2429	483.406234656	6.0
5.2531	483.652901601	3.0
5.2634	483.901255069	4.0
5.2736	484.14647479	7.0
5.2838	484.390977595	4.0
5.2941	484.637152128	6.0
5.3043	484.880220407	4.0
5.3146	485.124950605	5.0
5.3248	485.366592774	4.0
5.335	485.607528487	7.0
5.3453	485.850111539	5.0
5.3555	486.089633654	3.0
5.3658	486.330793442	4.0
5.376	486.568910253	7.0
5.3862	486.806330915	1.0
5.3965	487.045374881	8.0
5.4067	487.281402568	10.0
5.417	487.519044036	3.0
5.4272	487.753686921	7.0
5.4374	487.987643813	4.0
5.4477	488.223200327	6.0
5.4579	488.455784566	4.0
5.4682	488.689959043	8.0
5.4784	488.921178684	2.0
5.4886	489.151722339	3.0
5.4989	489.38384228	1.0
5.5091	489.613033309	2.0
5.5194	489.843791375	0.0
5.5296	490.071637714	8.0
5.5398	490.298817929	5.0
5.5501	490.527551433	3.0
5.5603	490.753398756	6.0
5.5706	490.980790254	7.0
5.5808	491.205312504	3.0
5.591	491.429178349	4.0
5.6013	491.654574822	6.0
5.6115	491.87712722	3.0
5.6218	492.101201265	3.0
5.632	492.322447923	3.0
5.6422	492.543047752	6.0
5.6525	492.765155878	7.0
5.6627	492.984461422	8.0
5.673	493.205266413	9.0
5.6832	493.423285266	8.0
5.6934	493.640666727	5.0
5.7037	493.85953448	6.0
5.7139	494.075640539	8.0
5.7242	494.29322417	2.0
5.7344	494.508062309	5.0
5.7446	494.722272356	3.0
5.7549	494.937947011	1.0
5.7651	495.150900262	4.0
5.7754	495.365309528	4.0
5.7856	495.577013358	9.0
5.7958	495.788098259	2.0
5.8061	496.0006264	6.0
5.8163	496.21047284	4.0
5.8266	496.421754054	4.0
5.8368	496.630369302	6.0
5.847	496.838374649	5.0
5.8573	497.047802181	6.0
5.8675	497.254587137	8.0
5.8778	497.462785934	4.0
5.888	497.668357659	5.0
5.8982	497.873328381	6.0
5.9085	498.07970054	3.0
5.9187	498.283468676	5.0
5.929	498.488630025	3.0
5.9392	498.69120263	6.0
5.9494	498.893183	5.0
5.9597	499.096544361	5.0
5.9699	499.297339689	6.0
5.9802	499.499507905	3.0
5.9904	499.699125144	7.0
6.0006	499.898158789	4.0
6.0109	500.098553277	3.0
6.0211	500.296419168	6.0
6.0314	500.495637919	4.0
6.0416	500.692342908	7.0
6.0518	500.888472818	5.0
6.0621	501.085943717	6.0
6.0723	501.28092291	7.0
6.0826	501.477235225	2.0
6.0928	501.671070452	7.0
6.103	501.864338989	4.0
6.1133	502.058928953	6.0
6.1235	502.251063562	4.0
6.1338	502.444511843	2.0
6.144	502.635519176	8.0
6.1542	502.825968086	2.0
6.1645	503.017719144	8.0
6.1747	503.207050669	7.0
6.185	503.397676701	5.0
6.1952	503.585897395	6.0
6.2054	503.773567815	0.0
6.2157	503.962521384	7.0
6.2259	504.14909072	8.0
6.2362	504.336935677	4.0
6.2464	504.522410388	7.0
6.2566	504.707342853	6.0
6.2669	504.893539747	4.0
6.2771	505.077387191	8.0
6.2874	505.262491646	6.0
6.2976	505.445260436	8.0
6.3078	505.62749489	3.0
6.3181	505.810975327	4.0
6.3283	505.992140589	4.0
6.3386	506.174544525	1.0
6.3488	506.35464687	6.0
6.359	506.534222675	7.0
6.3693	506.715026285	5.0
6.3795	506.893548497	5.0
6.3898	507.073291311	4.0
6.4	507.250766113	6.0
6.4102	507.427722057	6.0
6.4205	507.605887892	7.0
6.4307	507.781805614	6.0
6.441	507.95892613	4.0
6.4512	508.133811723	4.0
6.4614	508.308186026	5.0
6.4717	508.483752571	4.0
6.4819	508.6571038	1.0
6.4922	508.831640275	0.0
6.5024	509.003974432	6.0
6.5126	509.175804759	1.0
6.5229	509.348809934	4.0
6.5331	509.519632113	4.0
6.5434	509.691622246	4.0
6.5536	509.861442192	2.0
6.5638	510.030765658	3.0
6.5741	510.201246831	3.0
6.5843	510.369576856	3.0
6.5946	510.539057797	4.0
6.6048	510.706400211	2.0
6.615	510.873253388	3.0
6.6253	511.041247383	2.0
6.6355	511.207121614	4.0
6.6458	511.374129968	5.0
6.656	511.539030996	3.0
6.6662	511.703449924	3.0
6.6765	511.868993027	2.0
6.6867	512.03244729	6.0
6.697	512.197019132	3.0
6.7072	512.359514391	3.0
6.7174	512.521534584	6.0
6.7277	512.68466255	4.0
6.7379	512.845732152	3.0
6.7482	513.007903028	5.0
6.7584	513.168027616	3.0
6.7686	513.327684069	3.0
6.7789	513.488432135	1.0
6.7891	513.647151865	4.0
6.7994	513.806956803	2.0
6.8096	513.964745306	0.0
6.8198	514.122072505	5.0
6.8301	514.28047539	7.0
6.8403	514.436879532	2.0
6.8506	514.594353048	3.0
6.8608	514.749839549	5.0
6.871	514.904871475	3.0
6.8813	515.060963393	1.0
6.8915	515.215085729	2.0
6.9018	515.370261838	3.0
6.912	515.52347992	2.0
6.9222	515.67625006	2.0
6.9325	515.830064727	1.0
6.9427	515.981938546	3.0
6.953	516.134850765	1.0
6.9632	516.285833523	1.0
6.9734	516.436374873	0.0
6.9837	516.587945512	2.0
6.9939	516.737603619	1.0
7.0042	516.888284976	4.0
7.0144	517.037065021	0.0
7.0246	517.185410098	0.0
7.0349	517.334769448	3.0
7.0451	517.482244167	1.0
7.0554	517.630727208	3.0
7.0656	517.777336677	2.0
7.0758	517.923517523	4.0
7.0861	518.070697844	3.0
7.0963	518.21602103	0.0
7.1066	518.362337827	3.0
7.1168	518.506808385	4.0
7.127	518.650856574	2.0
7.1373	518.795889657	1.0
7.1475	518.939092699	1.0
7.1578	519.083274856	1.0
7.168	519.225637709	1.0
7.1782	519.367584355	2.0
7.1885	519.510501526	1.0
7.1987	519.651615355	2.0
7.209	519.793694014	3.0
7.2192	519.933979912	0.0
7.2294	520.073855674	1.0
7.2397	520.214687803	2.0
7.2499	520.353742898	0.0
7.2602	520.493748748	0.0
7.2704	520.631987991	2.0
7.2806	520.769823083	0.0
7.2909	520.908600588	0.0
7.3011	521.045626985	1.0
7.3114	521.183590266	1.0
7.3216	521.319812714	1.0
7.3318	521.455636906	1.0
7.3421	521.592389763	2.0
7.3523	521.727417059	1.0
7.3626	521.863367571	2.0
7.3728	521.997602646	0.0
7.383	522.131445277	1.0
7.3933	522.266203023	1.0
7.4035	522.399260384	1.0
7.4138	522.533227491	0.0
7.424	522.665504188	1.0
7.4342	522.797394166	1.0
7.4445	522.930185909	2.0
7.4547	523.061302073	1.0
7.465	523.193314712	1.0
7.4752	523.323661602	0.0
7.4854	523.453627416	0.0
7.4957	523.584481838	0.0
7.5059	523.713685126	2.0
7.5162	523.84377181	0.0
7.5264	523.972217048	3.0
7.5366	524.100286768	1.0
7.5469	524.229232133	0.0
7.5571	524.356550453	1.0
7.5674	524.484739281	0.0
7.5776	524.61131061	2.0
7.5878	524.737511899	1.0
7.5981	524.864576059	3.0
7.6083	524.990036911	3.0
7.6186	525.11635557	0.0
7.6288	525.241080328	1.0
7.639	525.365440446	1.0
7.6493	525.490650845	0.0
7.6595	525.614281328	1.0
7.6698	525.738757103	1.0
7.68	525.861662231	1.0
7.6902	525.984208038	2.0
7.7005	526.107591722	2.0
7.7107	526.229418539	0.0
7.721	526.352078316	0.0
7.7312	526.473190361	1.0
7.7414	526.593948326	0.0
7.7517	526.715531945	2.0
7.7619	526.83558141	1.0
7.7722	526.956451683	0.0
7.7824	527.075796804	4.0
7.7926	527.194793011	0.0
7.8029	527.314602826	0.0
7.8131	527.432900869	0.0
7.8234	527.552007746	0.0
7.8336	527.669611721	1.0
7.8438	527.786871873	2.0
7.8541	527.904933762	0.0
7.8643	528.021505935	0.0
7.8746	528.138875142	2.0
7.8848	528.254763372	0.0
7.895	528.370312796	1.0
7.9053	528.486652261	1.0
7.9155	528.601523743	0.0
7.9258	528.71718063	1.0
7.936	528.831378148	0.0
7.9462	528.945241802	1.0
7.9565	529.059883971	0.0
7.9667	529.173079574	1.0
7.977	529.287049124	1.0
7.9872	529.399580595	1.0
7.9974	529.511783073	0.0
8.0077	529.624752708	0.0
8.0179	529.736296881	1.0
8.0282	529.84860371	1.0
8.0384	529.959493441	0.0
8.0486	530.070058978	0.0
8.0589	530.18138048	0.0
8.0691	530.291297317	0.0
8.0794	530.401965683	1.0
8.0896	530.511237625	1.0
8.0998	530.620190103	1.0
8.1101	530.729887517	1.0
8.1203	530.838200759	1.0
8.1306	530.947254565	0.0
8.1408	531.05493232	0.0
8.151	531.162295273	0.0
8.1613	531.270392293	0.0
8.1715	531.377125334	0.0
