TL-DOS Lehrstuhlversuch
detector=R1408302
job_number=2015-10-15-006
irradiation_dose [mSv]=1.0

[BEGIN DATA]
time [sec] 	 temperature [K] 	 photoncount 
0.0	219.016110298	0.0
0.0102	219.93255048	0.0
0.0205	220.855569921	0.0
0.0307	221.767252097	4.0
0.041	222.685479374	1.0
0.0512	223.592428246	1.0
0.0614	224.497031175	0.0
0.0717	225.408128382	2.0
0.0819	226.308034762	4.0
0.0922	227.214401703	2.0
0.1024	228.109635917	2.0
0.1126	229.00255449	1.0
0.1229	229.901883457	2.0
0.1331	230.790166144	1.0
0.1434	231.684825944	0.0
0.1536	232.568496813	0.0
0.1638	233.449881951	0.0
0.1741	234.337594684	1.0
0.1843	235.214403816	1.0
0.1946	236.097507691	1.0
0.2048	236.969764574	1.0
0.215	237.83976525	0.0
0.2253	238.71601179	1.0
0.2355	239.581495566	1.0
0.2458	240.453192778	1.0
0.256	241.314183105	0.0
0.2662	242.172946367	0.0
0.2765	243.037874817	0.0
0.2867	243.892179521	0.0
0.297	244.752617406	0.0
0.3072	245.602486702	0.0
0.3174	246.450157698	0.0
0.3277	247.303914249	0.0
0.3379	248.147184278	0.0
0.3482	248.996508266	0.0
0.3584	249.835400176	0.0
0.3686	250.67212218	0.0
0.3789	251.514851136	0.0
0.3891	252.347229018	0.0
0.3994	253.185582664	0.0
0.4096	254.013638978	1.0
0.4198	254.839553414	0.0
0.4301	255.671397212	0.0
0.4403	256.493023637	0.0
0.4506	257.32054864	0.0
0.4608	258.137909316	0.0
0.471	258.95315578	1.0
0.4813	259.77425502	0.0
0.4915	260.585268859	0.0
0.5018	261.402105087	0.0
0.512	262.208908277	0.0
0.5222	263.013624563	0.0
0.5325	263.824118027	0.0
0.5427	264.624656359	0.0
0.553	265.430941874	1.0
0.5632	266.227323944	0.0
0.5734	267.021646065	0.0
0.5837	267.821670743	0.0
0.5939	268.611868875	1.0
0.6042	269.407739957	0.0
0.6144	270.193835511	0.0
0.6246	270.977897725	0.0
0.6349	271.767588838	1.0
0.6451	272.54758033	0.0
0.6554	273.333171497	0.0
0.6656	274.109113402	0.0
0.6758	274.883048231	0.0
0.6861	275.662539253	0.0
0.6963	276.432455939	0.0
0.7066	277.207899972	0.0
0.7168	277.973819379	0.0
0.727	278.737757634	0.0
0.7373	279.507180314	0.0
0.7475	280.267152328	0.0
0.7578	281.032580293	0.0
0.768	281.788606657	0.0
0.7782	282.542677459	1.0
0.7885	283.302161847	0.0
0.7987	284.052317637	0.0
0.809	284.807858908	0.0
0.8192	285.554120014	1.0
0.8294	286.298450816	0.0
0.8397	287.04812528	0.0
0.8499	287.78859164	0.0
0.8602	288.534373918	0.0
0.8704	289.270995899	0.0
0.8806	290.005712509	0.0
0.8909	290.745703759	1.0
0.9011	291.476605843	0.0
0.9114	292.21275518	0.0
0.9216	292.939862541	0.0
0.9318	293.665089141	0.0
0.9421	294.395522252	0.0
0.9523	295.116983596	0.0
0.9626	295.843624418	0.0
0.9728	296.561340054	0.0
0.983	297.277199223	0.0
0.9933	297.998197652	0.0
1.0035	298.710340198	0.0
1.0138	299.427595322	0.0
1.024	300.136040542	0.0
1.0342	300.842653275	0.0
1.0445	301.554338886	0.0
1.0547	302.257283002	0.0
1.065	302.965273658	0.0
1.0752	303.664568205	0.0
1.0854	304.362053934	0.0
1.0957	305.064547016	0.0
1.1059	305.758411513	1.0
1.1162	306.457257367	1.0
1.1264	307.147519435	0.0
1.1366	307.835996049	0.0
1.1469	308.529415338	0.0
1.1571	309.214317495	0.0
1.1674	309.904136666	1.0
1.1776	310.585482924	0.0
1.1878	311.265066789	0.0
1.1981	311.949529488	0.0
1.2083	312.625585067	1.0
1.2186	313.306494148	0.0
1.2288	313.979039758	0.0
1.239	314.649845739	0.0
1.2493	315.325467535	0.0
1.2595	315.992790803	0.0
1.2698	316.664904883	0.0
1.28	317.328763518	0.0
1.2902	317.990904994	0.0
1.3005	318.657800083	0.0
1.3107	319.316503831	0.0
1.321	319.97993651	0.0
1.3312	320.635220377	1.0
1.3414	321.288809264	1.0
1.3517	321.947090364	1.0
1.3619	322.597285926	0.0
1.3722	323.252149339	0.0
1.3824	323.898969193	1.0
1.3926	324.544115963	0.0
1.4029	325.193894336	1.0
1.4131	325.83569161	0.0
1.4234	326.482096441	0.0
1.4336	327.12056161	0.0
1.4438	327.757375303	1.0
1.4541	328.398760776	3.0
1.4643	329.032268238	1.0
1.4746	329.670323744	0.0
1.4848	330.30054214	0.0
1.495	330.929130393	0.0
1.5053	331.562231373	1.0
1.5155	332.187556099	0.0
1.5258	332.817370124	0.0
1.536	333.439448268	2.0
1.5462	334.059917324	0.0
1.5565	334.684840819	1.0
1.5667	335.302088502	2.0
1.577	335.923767497	0.0
1.5872	336.537810532	2.0
1.5974	337.150265264	2.0
1.6077	337.767116898	1.0
1.6179	338.376391866	2.0
1.6282	338.990040909	1.0
1.6384	339.596152621	0.0
1.6486	340.200696545	0.0
1.6589	340.80958058	1.0
1.6691	341.410985812	4.0
1.6794	342.016708621	2.0
1.6896	342.614991457	1.0
1.6998	343.211726754	1.0
1.7101	343.812746103	0.0
1.7203	344.406383249	3.0
1.7306	345.004282205	3.0
1.7408	345.594837285	1.0
1.751	346.183864817	2.0
1.7613	346.777121064	3.0
1.7715	347.363090462	1.0
1.7818	347.953266621	3.0
1.792	348.536193762	1.0
1.8022	349.117613086	2.0
1.8125	349.703206504	2.0
1.8227	350.281607194	4.0
1.833	350.864160309	5.0
1.8432	351.439558038	2.0
1.8534	352.013467425	6.0
1.8637	352.591496992	1.0
1.8739	353.162426736	6.0
1.8842	353.737455269	7.0
1.8944	354.305420841	1.0
1.9046	354.871917293	7.0
1.9149	355.442480708	5.0
1.9251	356.006036005	5.0
1.9354	356.573637149	6.0
1.9456	357.13426656	3.0
1.9558	357.693445828	5.0
1.9661	358.256639528	3.0
1.9763	358.81291563	14.0
1.9866	359.373185321	8.0
1.9968	359.926573329	4.0
2.007	360.478529926	2.0
2.0173	361.034449102	13.0
2.0275	361.583540031	10.0
2.0378	362.136572966	5.0
2.048	362.682813106	13.0
2.0582	363.227640324	10.0
2.0685	363.776378937	13.0
2.0787	364.318377502	12.0
2.089	364.864267155	11.0
2.0992	365.403451753	4.0
2.1094	365.941241678	9.0
2.1197	366.482892477	11.0
2.1299	367.017890286	12.0
2.1402	367.556728923	7.0
2.1504	368.088949112	15.0
2.1606	368.619792642	9.0
2.1709	369.154447177	15.0
2.1811	369.682534656	21.0
2.1914	370.214413353	9.0
2.2016	370.739759088	22.0
2.2118	371.263745948	14.0
2.2221	371.791494586	24.0
2.2323	372.312760993	21.0
2.2426	372.837769647	18.0
2.2528	373.356329724	20.0
2.263	373.873548477	32.0
2.2733	374.39448042	20.0
2.2835	374.909013858	37.0
2.2938	375.427241208	24.0
2.304	375.939103274	20.0
2.3142	376.449641341	30.0
2.3245	376.963844636	34.0
2.3347	377.471732073	29.0
2.345	377.983265709	24.0
2.3552	378.488516279	36.0
2.3654	378.992459951	46.0
2.3757	379.500021509	38.0
2.3859	380.001348789	39.0
2.3962	380.506275172	49.0
2.4064	381.004999643	46.0
2.4166	381.502434098	37.0
2.4269	382.003439708	44.0
2.4371	382.498291564	49.0
2.4474	382.996696036	39.0
2.4576	383.488978704	49.0
2.4678	383.979988017	57.0
2.4781	384.474522359	62.0
2.4883	384.962982434	56.0
2.4986	385.454949235	50.0
2.5088	385.940873305	83.0
2.519	386.425540468	75.0
2.5293	386.913687129	83.0
2.5395	387.39583798	84.0
2.5498	387.881450264	81.0
2.56	388.361097867	86.0
2.5702	388.839504799	93.0
2.5805	389.321346285	80.0
2.5907	389.797269407	97.0
2.601	390.276609251	92.0
2.6112	390.750061459	80.0
2.6214	391.222289019	98.0
2.6317	391.697906772	105.0
2.6419	392.167682605	127.0
2.6522	392.640831028	108.0
2.6624	393.108167863	101.0
2.6726	393.574295869	109.0
2.6829	394.043770277	118.0
2.6931	394.507478224	128.0
2.7034	394.974515198	126.0
2.7136	395.435815649	119.0
2.7238	395.895922886	113.0
2.7341	396.359333301	150.0
2.7443	396.817051736	135.0
2.7546	397.278056201	135.0
2.7648	397.733398238	120.0
2.775	398.187562473	149.0
2.7853	398.64498722	131.0
2.7955	399.096793509	143.0
2.8058	399.551843382	132.0
2.816	400.001303968	155.0
2.8262	400.449601964	149.0
2.8365	400.901118358	182.0
2.8467	401.347088865	161.0
2.857	401.79626106	160.0
2.8672	402.239916162	173.0
2.8774	402.682423691	184.0
2.8877	403.128108047	169.0
2.8979	403.56831815	194.0
2.9082	404.011688587	151.0
2.9184	404.449613191	187.0
2.9286	404.886405046	166.0
2.9389	405.326332695	166.0
2.9491	405.760856798	178.0
2.9594	406.198500415	159.0
2.9696	406.630768541	160.0
2.9798	407.061918549	164.0
2.9901	407.496163846	159.0
3.0003	407.925075394	172.0
3.0106	408.357066161	192.0
3.0208	408.783750871	148.0
3.031	409.209331905	144.0
3.0413	409.637968248	187.0
3.0515	410.061339735	133.0
3.0618	410.487750668	159.0
3.072	410.90892408	169.0
3.0822	411.329008072	157.0
3.0925	411.752107908	178.0
3.1027	412.170010893	130.0
3.113	412.590914065	137.0
3.1232	413.006647366	127.0
3.1334	413.421305318	109.0
3.1437	413.838940161	107.0
3.1539	414.251445278	106.0
3.1642	414.66691183	119.0
3.1744	415.077275288	102.0
3.1846	415.486577286	113.0
3.1949	415.898817725	127.0
3.2051	416.305994695	100.0
3.2154	416.716094849	113.0
3.2256	417.121157823	88.0
3.2358	417.525173049	89.0
3.2461	417.93208876	80.0
3.2563	418.334006405	80.0
3.2666	418.738809477	70.0
3.2768	419.138640432	90.0
3.287	419.537437171	90.0
3.2973	419.939096932	88.0
3.3075	420.335823184	91.0
3.3178	420.735397594	77.0
3.328	421.130064109	72.0
3.3382	421.523709767	56.0
3.3485	421.920181466	92.0
3.3587	422.311783381	57.0
3.369	422.706196664	81.0
3.3792	423.095765447	78.0
3.3894	423.484326558	83.0
3.3997	423.875677207	93.0
3.4099	424.262220973	73.0
3.4202	424.651539795	76.0
3.4304	425.036076689	84.0
3.4406	425.419618928	90.0
3.4509	425.805914674	110.0
3.4611	426.187465625	77.0
3.4714	426.571755787	89.0
3.4816	426.951325789	90.0
3.4918	427.329913983	86.0
3.5021	427.711220117	93.0
3.5123	428.087842743	108.0
3.5226	428.467169199	89.0
3.5328	428.841836463	82.0
3.543	429.2155346	92.0
3.5533	429.591915571	99.0
3.5635	429.963673529	98.0
3.5738	430.338100393	120.0
3.584	430.707928245	98.0
3.5942	431.076799489	118.0
3.6045	431.448318914	114.0
3.6147	431.815275039	113.0
3.625	432.184865596	113.0
3.6352	432.549916545	119.0
3.6454	432.914023242	109.0
3.6557	433.280743915	119.0
3.6659	433.64296023	123.0
3.6762	434.007776949	120.0
3.6864	434.368112697	140.0
3.6966	434.727516388	159.0
3.7069	435.089500292	109.0
3.7171	435.447038019	113.0
3.7274	435.807142562	145.0
3.7376	436.162824012	138.0
3.7478	436.517585445	156.0
3.7581	436.874893762	117.0
3.7683	437.227813332	133.0
3.7786	437.583266564	157.0
3.7888	437.934353834	133.0
3.799	438.28453297	153.0
3.8093	438.637226095	156.0
3.8195	438.985587158	163.0
3.8298	439.336449158	159.0
3.84	439.683001589	168.0
3.8502	440.028657616	133.0
3.8605	440.376795159	142.0
3.8707	440.720656597	159.0
3.881	441.066986667	153.0
3.8912	441.409062833	149.0
3.9014	441.750254174	156.0
3.9117	442.093894978	165.0
3.9219	442.43331491	175.0
3.9322	442.775171588	153.0
3.9424	443.112829308	161.0
3.9526	443.449613631	157.0
3.9629	443.788815779	139.0
3.9731	444.123851573	163.0
3.9834	444.461292639	166.0
3.9936	444.794588984	154.0
4.0038	445.127023212	162.0
4.0141	445.461844036	172.0
4.0243	445.792552321	151.0
4.0346	446.12563481	149.0
4.0448	446.454626113	160.0
4.055	446.782766436	167.0
4.0653	447.113262527	154.0
4.0755	447.439699199	144.0
4.0858	447.768479409	152.0
4.096	448.093221276	149.0
4.1062	448.417123156	157.0
4.1165	448.743350375	149.0
4.1267	449.065570609	156.0
4.137	449.39010411	131.0
4.1472	449.71065143	170.0
4.1574	450.030369612	145.0
4.1677	450.352383099	147.0
4.1779	450.670441357	159.0
4.1882	450.990783002	164.0
4.1984	451.307189954	152.0
4.2086	451.622778478	162.0
4.2189	451.940632658	131.0
4.2291	452.254582698	142.0
4.2394	452.570786632	123.0
4.2496	452.883106695	121.0
4.2598	453.194618901	136.0
4.2701	453.5083675	122.0
4.2803	453.818262386	131.0
4.2906	454.130382053	143.0
4.3008	454.438668016	137.0
4.311	454.746156557	118.0
4.3213	455.055852603	136.0
4.3315	455.361744714	142.0
4.3418	455.66983287	115.0
4.352	455.974136839	103.0
4.3622	456.277653686	119.0
4.3725	456.583349526	153.0
4.3827	456.885290563	118.0
4.393	457.189399281	128.0
4.4032	457.48977269	117.0
4.4134	457.789369144	112.0
4.4237	458.091116446	146.0
4.4339	458.389157444	161.0
4.4442	458.689338124	122.0
4.4544	458.985831743	122.0
4.4646	459.281558442	116.0
4.4749	459.579408207	137.0
4.4851	459.873599542	118.0
4.4954	460.16990292	138.0
4.5056	460.462566862	118.0
4.5158	460.75447379	137.0
4.5261	461.048476361	115.0
4.5363	461.338867756	155.0
4.5466	461.631343915	120.0
4.5568	461.920227646	126.0
4.567	462.208364141	99.0
4.5773	462.498569211	120.0
4.5875	462.785209749	137.0
4.5978	463.073908122	128.0
4.608	463.35906047	106.0
4.6182	463.643475233	130.0
4.6285	463.929931853	127.0
4.6387	464.212869982	118.0
4.649	464.497839365	113.0
4.6592	464.779308526	120.0
4.6694	465.06004963	110.0
4.6797	465.342806216	124.0
4.6899	465.622089758	128.0
4.7002	465.903378318	111.0
4.7104	466.181211866	130.0
4.7206	466.458326761	115.0
4.7309	466.737431105	111.0
4.7411	467.013107265	110.0
4.7514	467.290762545	133.0
4.7616	467.565007441	119.0
4.7718	467.838542965	128.0
4.7821	468.114042241	107.0
4.7923	468.386157614	119.0
4.8026	468.660226544	143.0
4.8128	468.930929139	135.0
4.823	469.200931526	105.0
4.8333	469.4728723	123.0
4.8435	469.741472879	130.0
4.8538	470.012001781	125.0
4.864	470.27920783	125.0
4.8742	470.545722716	100.0
4.8845	470.814150951	120.0
4.8947	471.079282135	122.0
4.905	471.346316735	118.0
4.9152	471.610071402	138.0
4.9254	471.873143832	115.0
4.9357	472.138104899	117.0
4.9459	472.399811501	109.0
4.9562	472.663396933	111.0
4.9664	472.923744797	123.0
4.9766	473.183419237	142.0
4.9869	473.444957919	113.0
4.9971	473.703284172	126.0
5.0074	473.963464987	127.0
5.0176	474.220450054	129.0
5.0278	474.476770394	109.0
5.0381	474.734930895	96.0
5.0483	474.989920463	120.0
5.0586	475.246740638	132.0
5.0688	475.500406341	124.0
5.079	475.753415905	124.0
5.0893	476.008241862	131.0
5.0995	476.259937841	121.0
5.1098	476.513440784	106.0
5.12	476.763829999	124.0
5.1302	477.01357155	125.0
5.1405	477.265106033	114.0
5.1507	477.513550967	107.0
5.161	477.763779524	122.0
5.1712	478.010934573	103.0
5.1814	478.257450322	106.0
5.1917	478.505735845	125.0
5.2019	478.750971725	114.0
5.2122	478.997968191	112.0
5.2224	479.241930847	123.0
5.2326	479.485262462	109.0
5.2429	479.73034099	104.0
5.2531	479.972409267	103.0
5.2634	480.216215388	109.0
5.2736	480.457026887	96.0
5.2838	480.697215495	108.0
5.2941	480.939128452	128.0
5.3043	481.17807004	117.0
5.3146	481.418727025	115.0
5.3248	481.656428068	114.0
5.335	481.893514266	90.0
5.3453	482.13230254	92.0
5.3555	482.368157826	91.0
5.3658	482.605706351	107.0
5.376	482.840337114	108.0
5.3862	483.074360974	119.0
5.3965	483.310064926	108.0
5.4067	483.542873773	114.0
5.417	483.777353989	118.0
5.4272	484.008954131	115.0
5.4374	484.239955208	101.0
5.4477	484.472614676	100.0
5.4579	484.702416434	94.0
5.4682	484.933867973	105.0
5.4784	485.162476638	109.0
5.4886	485.390493976	112.0
5.4989	485.620148285	99.0
5.5091	485.846981795	110.0
5.5194	486.075443777	95.0
5.5296	486.301099605	108.0
5.5398	486.526171744	109.0
5.5501	486.752859709	115.0
5.5603	486.976763311	96.0
5.5706	487.20227435	94.0
5.5808	487.425015481	120.0
5.591	487.647180463	90.0
5.6013	487.870940401	105.0
5.6115	488.091951939	107.0
5.6218	488.314550151	103.0
5.632	488.534414234	114.0
5.6422	488.753709609	96.0
5.6525	488.974579338	96.0
5.6627	489.192736168	100.0
5.673	489.412459177	112.0
5.6832	489.629483373	102.0
5.6934	489.845946206	104.0
5.7037	490.063963059	93.0
5.7139	490.279302053	98.0
5.7242	490.496186998	98.0
5.7344	490.710407988	75.0
5.7446	490.924074867	112.0
5.7549	491.139275692	93.0
5.7651	491.351833247	104.0
5.7754	491.565916785	105.0
5.7856	491.777370777	96.0
5.7958	491.988277815	92.0
5.8061	492.200698987	84.0
5.8163	492.41051103	83.0
5.8266	492.621829346	108.0
5.8368	492.83055208	110.0
5.847	493.038734925	101.0
5.8573	493.248412346	89.0
5.8675	493.45551434	97.0
5.8778	493.66410315	94.0
5.888	493.870129905	81.0
5.8982	494.075623745	111.0
5.9085	494.282592855	99.0
5.9187	494.487019804	98.0
5.929	494.692914365	91.0
5.9392	494.896279963	110.0
5.9494	495.09911953	99.0
5.9597	495.303415311	105.0
5.9699	495.505201768	104.0
5.9802	495.70843688	97.0
5.9904	495.909175694	101.0
6.0006	496.109395272	102.0
6.0109	496.311052255	103.0
6.0211	496.510232325	103.0
6.0314	496.710842339	86.0
6.0416	496.908988299	108.0
6.0518	497.106621729	103.0
6.0621	497.305673998	112.0
6.0723	497.502281347	109.0
6.0826	497.70030017	106.0
6.0928	497.895886767	114.0
6.103	498.090967452	111.0
6.1133	498.287448651	87.0
6.1235	498.481516511	100.0
6.1338	498.676977612	91.0
6.144	498.870037902	109.0
6.1542	499.062598817	90.0
6.1645	499.256542156	105.0
6.1747	499.448103326	103.0
6.185	499.641039742	96.0
6.1952	499.831606359	83.0
6.2054	500.021680049	110.0
6.2157	500.213118307	96.0
6.2259	500.402205167	94.0
6.2362	500.592649509	99.0
6.2464	500.78075466	99.0
6.2566	500.968373253	97.0
6.2669	501.157338788	94.0
6.2771	501.343983296	89.0
6.2874	501.531967752	89.0
6.2976	501.717643233	85.0
6.3078	501.902838439	98.0
6.3181	502.089363189	89.0
6.3283	502.273596893	84.0
6.3386	502.459153237	89.0
6.3488	502.64243043	69.0
6.359	502.825233551	81.0
6.3693	503.009349044	83.0
6.3795	503.191203082	96.0
6.3898	503.374362677	85.0
6.4	503.555272559	88.0
6.4102	503.735714494	89.0
6.4205	503.917451847	72.0
6.4307	504.096956957	78.0
6.441	504.277750761	92.0
6.4512	504.45632391	79.0
6.4614	504.634435156	92.0
6.4717	504.813825089	70.0
6.4819	504.99101161	86.0
6.4922	505.16947018	78.0
6.5024	505.345736779	78.0
6.5126	505.521547441	78.0
6.5229	505.698620273	109.0
6.5331	505.873518155	69.0
6.5434	506.049671654	86.0
6.5536	506.223661495	82.0
6.5638	506.397201288	66.0
6.5741	506.571986949	73.0
6.5843	506.744625752	81.0
6.5946	506.918503955	94.0
6.6048	507.090246446	71.0
6.615	507.261544702	69.0
6.6253	507.434072734	69.0
6.6355	507.604481638	45.0
6.6458	507.776113932	67.0
6.656	507.945638101	75.0
6.6662	508.114723774	64.0
6.6765	508.285023337	55.0
6.6867	508.453231145	67.0
6.697	508.622646541	75.0
6.7072	508.789981041	59.0
6.7174	508.956882709	55.0
6.7277	509.124982588	63.0
6.7379	509.291017729	75.0
6.7482	509.458244862	54.0
6.7584	509.623417976	67.0
6.7686	509.788163849	67.0
6.7789	509.954092456	55.0
6.7891	510.117982995	51.0
6.7994	510.283050129	59.0
6.8096	510.446089775	46.0
6.8198	510.608707698	48.0
6.8301	510.772493079	55.0
6.8403	510.934266716	49.0
6.8506	511.09720175	50.0
6.8608	511.258135486	45.0
6.871	511.418652945	38.0
6.8813	511.580322782	53.0
6.8915	511.740006861	41.0
6.9018	511.900837336	38.0
6.912	512.059692361	46.0
6.9222	512.218136487	36.0
6.9325	512.377718107	27.0
6.9427	512.535339617	40.0
6.953	512.694092715	33.0
6.9632	512.85089588	29.0
6.9734	513.007293453	32.0
6.9837	513.164813828	37.0
6.9939	513.320399411	38.0
7.0042	513.477101965	27.0
7.0144	513.631879773	33.0
7.0246	513.786257228	42.0
7.0349	513.941742982	23.0
7.0451	514.095318934	39.0
7.0554	514.249997431	18.0
7.0656	514.402776043	41.0
7.0758	514.555159472	31.0
7.0861	514.708636885	28.0
7.0963	514.860229165	32.0
7.1066	515.012909748	25.0
7.1168	515.163714986	32.0
7.127	515.314130146	27.0
7.1373	515.465625159	27.0
7.1475	515.615259388	23.0
7.1578	515.765967864	24.0
7.168	515.914825217	24.0
7.1782	516.063297531	18.0
7.1885	516.212835749	20.0
7.1987	516.360537219	34.0
7.209	516.50929906	20.0
7.2192	516.656233689	18.0
7.2294	516.802788252	19.0
7.2397	516.950394951	27.0
7.2499	517.096188627	18.0
7.2602	517.243028977	21.0
7.2704	517.388065715	14.0
7.2806	517.532727298	14.0
7.2909	517.678427427	17.0
7.3011	517.82233795	15.0
7.3114	517.967281628	23.0
7.3216	518.110444991	15.0
7.3318	518.253238044	11.0
7.3421	518.397056228	9.0
7.3523	518.539107923	16.0
7.3626	518.682179428	15.0
7.3728	518.823493613	10.0
7.383	518.964442271	10.0
7.3933	519.10640282	10.0
7.4035	519.246619695	11.0
7.4138	519.387843208	16.0
7.424	519.527332101	13.0
7.4342	519.666460187	8.0
7.4445	519.806587095	7.0
7.4547	519.944992851	11.0
7.465	520.084392242	13.0
7.4752	520.222079418	12.0
7.4854	520.359410449	3.0
7.4957	520.497727399	7.0
7.5059	520.634345429	5.0
7.5162	520.77194426	8.0
7.5264	520.907852992	12.0
7.5366	521.043410178	17.0
7.5469	521.179940549	7.0
7.5571	521.314793944	3.0
7.5674	521.450615472	10.0
7.5776	521.584768731	8.0
7.5878	521.718574985	9.0
7.5981	521.853341853	6.0
7.6083	521.986453407	8.0
7.6186	522.120520588	6.0
7.6288	522.252941049	5.0
7.639	522.385018986	9.0
7.6493	522.518045131	6.0
7.6595	522.649437341	11.0
7.6698	522.781772836	8.0
7.68	522.91248288	3.0
7.6902	523.042854825	5.0
7.7005	523.17416273	2.0
7.7107	523.303857805	4.0
7.721	523.434483981	7.0
7.7312	523.563505701	4.0
7.7414	523.692193689	6.0
7.7517	523.821805548	3.0
7.7619	523.949825409	7.0
7.7722	524.078764344	5.0
7.7824	524.206119548	5.0
7.7926	524.33314533	2.0
7.8029	524.46108305	7.0
7.8131	524.587449335	1.0
7.8234	524.714722823	3.0
7.8336	524.840433036	3.0
7.8438	524.965818082	4.0
7.8541	525.092103287	4.0
