TL-DOS Lehrstuhlversuch
detector=R1407201
job_number=2015-10-21-011
irradiation_dose [mSv]=3.0

[BEGIN DATA]
time [sec] 	 temperature [K] 	 photoncount 
0.0	138.015954373	0.0
0.0102	139.670277887	0.0
0.0205	141.334110526	4.0
0.0307	142.975171504	4.0
0.041	144.625665373	1.0
0.0512	146.25357014	2.0
0.0614	147.874968238	1.0
0.0717	149.505686204	1.0
0.0819	151.114085725	2.0
0.0922	152.731730399	0.0
0.1024	154.327235553	0.0
0.1126	155.916363537	0.0
0.1229	157.5146259	2.0
0.1331	159.091014014	0.0
0.1434	160.676463277	1.0
0.1536	162.240213656	1.0
0.1638	163.797713788	1.0
0.1741	165.364166499	1.0
0.1843	166.909180319	3.0
0.1946	168.463074945	0.0
0.2048	169.995702553	1.0
0.215	171.52220431	3.0
0.2253	173.057480467	1.0
0.2355	174.571744423	2.0
0.2458	176.094712434	1.0
0.256	177.596836696	1.0
0.2662	179.092957028	0.0
0.2765	180.597677127	1.0
0.2867	182.081803222	0.0
0.297	183.574460139	0.0
0.3072	185.046688153	0.0
0.3174	186.513031731	0.0
0.3277	187.987803917	0.0
0.3379	189.442391975	0.0
0.3482	190.905341069	0.0
0.3584	192.34826785	0.0
0.3686	193.78542731	1.0
0.3789	195.230847626	0.0
0.3891	196.656485532	0.0
0.3994	198.090318068	0.0
0.4096	199.504526786	0.0
0.4198	200.91308297	0.0
0.4301	202.329735597	0.0
0.4403	203.726999535	0.0
0.4506	205.132295009	0.0
0.4608	206.518357231	0.0
0.471	207.898879419	1.0
0.4813	209.287336909	0.0
0.4915	210.656791597	1.0
0.5018	212.034117972	0.0
0.512	213.392593888	0.0
0.5222	214.74564003	0.0
0.5325	216.106463542	1.0
0.5427	217.448662458	0.0
0.553	218.798576392	0.0
0.5632	220.130015042	0.0
0.5734	221.456131985	0.0
0.5837	222.789871508	0.0
0.5939	224.105357113	1.0
0.6042	225.428404187	0.0
0.6144	226.733343684	0.0
0.6246	228.033067391	0.0
0.6349	229.340261967	0.0
0.6451	230.629565927	0.0
0.6554	231.926280863	0.0
0.6656	233.205248611	0.0
0.6758	234.479104376	1.0
0.6861	235.76028232	0.0
0.6963	237.023925719	2.0
0.7066	238.294832597	0.0
0.7168	239.548345501	0.0
0.727	240.796848165	0.0
0.7373	242.052527278	0.0
0.7475	243.291020829	0.0
0.7578	244.536633296	0.0
0.768	245.765197976	0.0
0.7782	246.988852133	0.0
0.7885	248.219539908	0.0
0.7987	249.43338416	0.0
0.809	250.654205642	0.0
0.8192	251.858318634	0.0
0.8294	253.057618835	1.0
0.8397	254.263812666	0.0
0.8499	255.453498205	0.0
0.8602	256.650022109	0.0
0.8704	257.830170065	0.0
0.8806	259.005601018	0.0
0.8909	260.1877884	0.0
0.9011	261.353796048	0.0
0.9114	262.526505959	0.0
0.9216	263.683165848	0.0
0.9318	264.835202614	0.0
0.9421	265.993861338	0.0
0.9523	267.136662348	0.0
0.9626	268.286032229	0.0
0.9728	269.419671524	0.0
0.983	270.54877971	1.0
0.9933	271.684378059	0.0
1.0035	272.804434304	0.0
1.0138	273.930928683	1.0
1.024	275.042005556	1.0
1.0342	276.148641501	0.0
1.0445	277.261638437	0.0
1.0547	278.359402599	0.0
1.065	279.463476758	0.0
1.0752	280.552440261	0.0
1.0854	281.637051221	1.0
1.0957	282.727896574	2.0
1.1059	283.803812323	0.0
1.1162	284.885912484	1.0
1.1264	285.953202732	0.0
1.1366	287.016227064	2.0
1.1469	288.085361706	1.0
1.1571	289.139863885	2.0
1.1674	290.200427389	1.0
1.1776	291.246475736	0.0
1.1878	292.28834307	0.0
1.1981	293.336199104	0.0
1.2083	294.369713899	0.0
1.2186	295.409169382	1.0
1.2288	296.434398599	1.0
1.239	297.455530016	1.0
1.2493	298.482530941	0.0
1.2595	299.495476056	1.0
1.2698	300.514243625	1.0
1.28	301.519068067	1.0
1.2902	302.519876266	0.0
1.3005	303.526437155	0.0
1.3107	304.519221981	2.0
1.321	305.517713379	1.0
1.3312	306.502539155	2.0
1.3414	307.483428623	2.0
1.3517	308.469956286	0.0
1.3619	309.442982067	3.0
1.3722	310.421600843	0.0
1.3824	311.38682598	2.0
1.3926	312.348193151	1.0
1.4029	313.315086303	1.0
1.4131	314.268746296	1.0
1.4234	315.227887969	4.0
1.4336	316.173902571	1.0
1.4438	317.116135991	1.0
1.4541	318.063785411	3.0
1.4643	318.998465046	3.0
1.4746	319.938517261	1.0
1.4848	320.865703668	2.0
1.495	321.78918415	2.0
1.5053	322.717972838	2.0
1.5155	323.634049875	2.0
1.5258	324.555392563	3.0
1.536	325.464125507	2.0
1.5462	326.369226283	6.0
1.5565	327.279529618	3.0
1.5667	328.177374297	6.0
1.577	329.080379827	9.0
1.5872	329.971026581	2.0
1.5974	330.858113456	5.0
1.6077	331.750299346	5.0
1.6179	332.63027454	5.0
1.6282	333.51530787	6.0
1.6384	334.388228396	4.0
1.6486	335.257659895	5.0
1.6589	336.132088924	10.0
1.6691	336.994550283	5.0
1.6794	337.861969108	7.0
1.6896	338.717516205	9.0
1.6998	339.569643716	14.0
1.7101	340.426669293	14.0
1.7203	341.271965388	10.0
1.7306	342.122120283	16.0
1.7408	342.960639729	16.0
1.751	343.795807647	20.0
1.7613	344.635776147	13.0
1.7715	345.464248613	17.0
1.7818	346.297483175	18.0
1.792	347.119313865	20.0
1.8022	347.937859731	22.0
1.8125	348.761110635	18.0
1.8227	349.573094306	20.0
1.833	350.389745296	22.0
1.8432	351.19521938	22.0
1.8534	351.997474017	16.0
1.8637	352.804340049	29.0
1.8739	353.600163096	29.0
1.8842	354.40056057	34.0
1.8944	355.190003588	36.0
1.9046	355.976291235	31.0
1.9149	356.767098497	40.0
1.9251	357.54708256	43.0
1.9354	358.331550005	38.0
1.9456	359.105281018	46.0
1.9558	359.875919459	46.0
1.9661	360.650987565	50.0
1.9763	361.41544788	48.0
1.9866	362.184302347	52.0
1.9968	362.942634065	56.0
2.007	363.697934762	60.0
2.0173	364.457576961	55.0
2.0275	365.206822493	74.0
2.0378	365.960374721	80.0
2.048	366.703613631	66.0
2.0582	367.443881845	75.0
2.0685	368.188405154	77.0
2.0787	368.922738717	93.0
2.089	369.661293261	86.0
2.0992	370.38973975	115.0
2.1094	371.115274667	98.0
2.1197	371.844979992	101.0
2.1299	372.564698373	108.0
2.1402	373.288553728	121.0
2.1504	374.002502204	109.0
2.1606	374.713597056	127.0
2.1709	375.428779314	143.0
2.1811	376.134173394	164.0
2.1914	376.843622112	154.0
2.2016	377.543361123	170.0
2.2118	378.240303306	150.0
2.2221	378.941251544	198.0
2.2323	379.632606416	176.0
2.2426	380.327935226	196.0
2.2528	381.013747579	192.0
2.263	381.696818769	202.0
2.2733	382.383816281	196.0
2.2835	383.061411361	245.0
2.2938	383.742901288	208.0
2.304	384.415064161	237.0
2.3142	385.084540425	220.0
2.3245	385.757864869	262.0
2.3347	386.421974014	252.0
2.345	387.089900488	269.0
2.3552	387.74868554	299.0
2.3654	388.404837455	277.0
2.3757	389.064760961	327.0
2.3859	389.715652576	312.0
2.3962	390.370285545	334.0
2.4064	391.015959032	342.0
2.4166	391.659051787	383.0
2.4269	392.305841069	366.0
2.4371	392.943778218	407.0
2.4474	393.585382258	393.0
2.4576	394.218205134	408.0
2.4678	394.848498642	424.0
2.4781	395.482415104	417.0
2.4883	396.107655616	416.0
2.4986	396.736490038	416.0
2.5088	397.356718064	430.0
2.519	397.974467062	439.0
2.5293	398.59576691	440.0
2.5395	399.208563481	419.0
2.5498	399.824882434	489.0
2.56	400.43276628	464.0
2.5702	401.038220439	485.0
2.5805	401.647154775	445.0
2.5907	402.247755073	485.0
2.601	402.851807647	440.0
2.6112	403.447592996	496.0
2.6214	404.040997015	514.0
2.6317	404.637811946	455.0
2.6419	405.226458708	508.0
2.6522	405.818489038	455.0
2.6624	406.402416681	450.0
2.6726	406.98401039	448.0
2.6829	407.568947125	476.0
2.6931	408.145878258	435.0
2.7034	408.726125617	426.0
2.7136	409.298431556	407.0
2.7238	409.86845001	463.0
2.7341	410.441744956	461.0
2.7443	411.007193633	426.0
2.7546	411.575892534	371.0
2.7648	412.136808069	391.0
2.775	412.695481648	367.0
2.7853	413.257366507	371.0
2.7955	413.811561259	362.0
2.8058	414.368941547	366.0
2.816	414.918693379	325.0
2.8262	415.466247874	351.0
2.8365	416.016949738	303.0
2.8467	416.560114548	338.0
2.857	417.106401493	300.0
2.8672	417.645211808	337.0
2.8774	418.18186852	293.0
2.8877	418.721609959	301.0
2.8979	419.253964351	260.0
2.9082	419.789378741	282.0
2.9184	420.317465305	263.0
2.9286	420.843441128	262.0
2.9389	421.372440284	242.0
2.9491	421.894199415	293.0
2.9594	422.418957641	252.0
2.9696	422.936533885	260.0
2.9798	423.452041397	276.0
2.9901	423.97051207	286.0
3.0003	424.481886813	288.0
3.0106	424.996200962	247.0
3.0208	425.503476068	275.0
3.031	426.008723617	291.0
3.0413	426.516875351	288.0
3.0515	427.018072384	274.0
3.0618	427.52215032	333.0
3.072	428.019329309	319.0
3.0822	428.514521094	300.0
3.0925	429.012559264	324.0
3.1027	429.50378115	315.0
3.113	429.9978266	345.0
3.1232	430.485110412	331.0
3.1334	430.97044657	337.0
3.1437	431.458572462	350.0
3.1539	431.940017732	329.0
3.1642	432.424230371	362.0
3.1744	432.901815945	364.0
3.1846	433.37749263	403.0
3.1949	433.855903525	395.0
3.2051	434.32776676	382.0
3.2154	434.802342285	421.0
3.2256	435.270422643	428.0
3.2358	435.736632102	413.0
3.2461	436.205521354	434.0
3.2563	436.667993262	438.0
3.2666	437.133123479	466.0
3.2768	437.591887798	458.0
3.287	438.048818456	441.0
3.2973	438.50837557	455.0
3.3075	438.961643063	521.0
3.3178	439.417515958	477.0
3.328	439.867149653	498.0
3.3382	440.314986181	491.0
3.3485	440.765396893	517.0
3.3587	441.209643163	478.0
3.369	441.656442981	515.0
3.3792	442.097127776	530.0
3.3894	442.536051172	488.0
3.3997	442.977497519	551.0
3.4099	443.412902112	540.0
3.4202	443.850809431	550.0
3.4304	444.282723432	565.0
3.4406	444.712911091	520.0
3.4509	445.145571487	533.0
3.4611	445.572310377	552.0
3.4714	446.001502181	567.0
3.4816	446.42481995	523.0
3.4918	446.846445736	557.0
3.5021	447.270495046	513.0
3.5123	447.688740702	495.0
3.5226	448.109390453	533.0
3.5328	448.524283079	517.0
3.543	448.937517396	524.0
3.5533	449.353127002	531.0
3.5635	449.763048463	507.0
3.5738	450.175326171	503.0
3.584	450.581961335	553.0
3.5942	450.986971195	493.0
3.6045	451.39430907	529.0
3.6147	451.796072009	532.0
3.625	452.2001443	544.0
3.6352	452.598686348	494.0
3.6454	452.99563544	471.0
3.6557	453.394866213	462.0
3.6659	453.788633007	458.0
3.6762	454.184663189	505.0
3.6864	454.575273196	485.0
3.6966	454.964321951	480.0
3.7069	455.355606975	465.0
3.7171	455.741536767	459.0
3.7274	456.1296849	427.0
3.7376	456.512520735	512.0
3.7478	456.893826389	456.0
3.7581	457.277323806	455.0
3.7683	457.655572574	467.0
3.7786	458.035995532	432.0
3.7888	458.41121192	457.0
3.799	458.784928583	423.0
3.8093	459.160793386	430.0
3.8195	459.531514003	410.0
3.8298	459.904365537	413.0
3.84	460.272114126	404.0
3.8502	460.638392839	441.0
3.8605	461.006776937	417.0
3.8707	461.370119232	450.0
3.881	461.735550035	444.0
3.8912	462.095979453	419.0
3.9014	462.45496825	365.0
3.9117	462.81602053	421.0
3.9219	463.172131352	453.0
3.9322	463.530289114	406.0
3.9424	463.883545034	447.0
3.9526	464.235389003	434.0
3.9629	464.589255387	431.0
3.9731	464.938278661	415.0
3.9834	465.289308136	419.0
3.9936	465.635533328	409.0
4.0038	465.980374671	403.0
4.0141	466.327198178	449.0
4.0243	466.669274965	424.0
4.0346	467.013318025	427.0
4.0448	467.352652419	429.0
4.055	467.690630507	428.0
4.0653	468.030551308	388.0
4.0755	468.365819861	440.0
4.0858	468.703015553	409.0
4.096	469.035596295	442.0
4.1062	469.366847724	456.0
4.1165	469.700003202	429.0
4.1267	470.028599024	389.0
4.137	470.35908363	431.0
4.1472	470.685045134	427.0
4.1574	471.009703784	429.0
4.1677	471.336228585	426.0
4.1779	471.658284481	416.0
4.1882	471.982191568	425.0
4.1984	472.301665576	418.0
4.2086	472.619862659	408.0
4.2189	472.939888753	419.0
4.2291	473.255534884	418.0
4.2394	473.572995363	443.0
4.2496	473.886110993	414.0
4.2598	474.197975112	425.0
4.2701	474.51163184	409.0
4.2803	474.820995777	459.0
4.2906	475.132137953	439.0
4.3008	475.439021752	398.0
4.311	475.74467895	406.0
4.3213	476.052093079	421.0
4.3315	476.355299856	419.0
4.3418	476.660249478	437.0
4.352	476.961025478	387.0
4.3622	477.260599289	413.0
4.3725	477.561895063	422.0
4.3827	477.859067222	405.0
4.393	478.15794754	431.0
4.4032	478.452737302	419.0
4.4134	478.746348801	420.0
4.4237	479.041647992	427.0
4.4339	479.332905638	364.0
4.4442	479.625837447	437.0
4.4544	479.914760112	432.0
4.4646	480.202527965	410.0
4.4749	480.491949921	408.0
4.4851	480.777410769	391.0
4.4954	481.06451246	366.0
4.5056	481.347684799	380.0
4.5158	481.629725311	371.0
4.5261	481.913387003	378.0
4.5363	482.193166426	335.0
4.5466	482.474554032	403.0
4.5568	482.752090493	379.0
4.567	483.028517652	393.0
4.5773	483.306533726	384.0
4.5875	483.580744797	374.0
4.5978	483.856532046	379.0
4.608	484.128544797	357.0
4.6182	484.399470323	355.0
4.6285	484.671953142	375.0
4.6387	484.940706687	382.0
4.649	485.21100504	385.0
4.6592	485.477604017	343.0
4.6694	485.743137408	375.0
4.6797	486.010197097	340.0
4.6899	486.273601736	369.0
4.7002	486.538520436	339.0
4.7104	486.799813388	334.0
4.7206	487.060061962	330.0
4.7309	487.321806457	349.0
4.7411	487.579968646	369.0
4.7514	487.839614763	350.0
4.7616	488.095707293	349.0
4.7718	488.350776232	336.0
4.7821	488.607311319	350.0
4.7923	488.860335397	380.0
4.8026	489.114813869	365.0
4.8128	489.365809481	370.0
4.823	489.615801873	396.0
4.8333	489.867231232	366.0
4.8435	490.115219462	344.0
4.8538	490.364633138	336.0
4.864	490.610633273	369.0
4.8742	490.855650155	323.0
4.8845	491.102075404	340.0
4.8947	491.345128012	328.0
4.905	491.589577697	337.0
4.9152	491.830681777	330.0
4.9254	492.070822175	340.0
4.9357	492.31234291	368.0
4.9459	492.550558127	339.0
4.9562	492.790142616	363.0
4.9664	493.026448087	352.0
4.9766	493.261809055	377.0
4.9869	493.498522889	385.0
4.9971	493.731996993	369.0
5.0074	493.966813116	336.0
5.0176	494.198415483	364.0
5.0278	494.429092145	375.0
5.0381	494.661094747	363.0
5.0483	494.889922098	345.0
5.0586	495.12006476	374.0
5.0688	495.347057627	348.0
5.079	495.573143212	352.0
5.0893	495.800528348	329.0
5.0995	496.02480143	388.0
5.1098	496.250363643	363.0
5.12	496.472838751	374.0
5.1302	496.694424635	369.0
5.1405	496.917284205	342.0
5.1507	497.137093659	350.0
5.161	497.358166587	349.0
5.1712	497.576213852	408.0
5.1814	497.793389591	357.0
5.1917	498.011813665	375.0
5.2019	498.227248329	347.0
5.2122	498.443921321	358.0
5.2224	498.657628868	348.0
5.2326	498.870482235	354.0
5.2429	499.084559092	358.0
5.2531	499.295706036	384.0
5.2634	499.508066662	342.0
5.2736	499.717520864	357.0
5.2838	499.926137885	358.0
5.2941	500.135954046	343.0
5.3043	500.342898607	353.0
5.3146	500.551032695	346.0
5.3248	500.756318203	342.0
5.335	500.960783194	331.0
5.3453	501.166423458	357.0
5.3555	501.369249275	342.0
5.3658	501.573240943	362.0
5.376	501.774440727	323.0
5.3862	501.974836323	298.0
5.3965	502.176383802	328.0
5.4067	502.375172848	331.0
5.417	502.575104542	329.0
5.4272	502.772299917	344.0
5.4374	502.968707111	324.0
5.4477	503.166243261	305.0
5.4579	503.361075879	350.0
5.4682	503.557028404	300.0
5.4784	503.750299069	305.0
5.4886	503.94279724	300.0
5.4989	504.136401898	305.0
5.5091	504.327356831	309.0
5.5194	504.519409382	293.0
5.5296	504.70883345	262.0
5.5398	504.897500397	302.0
5.5501	505.08725181	274.0
5.5603	505.274406235	258.0
5.5706	505.462636432	254.0
5.5808	505.648290459	297.0
5.591	505.833202435	261.0
5.6013	506.019177293	240.0
5.6115	506.202606849	239.0
5.6218	506.387090767	239.0
5.632	506.569049788	236.0
5.6422	506.750281526	261.0
5.6525	506.932554992	241.0
5.6627	507.112333815	225.0
5.673	507.293146014	233.0
5.6832	507.471483569	201.0
5.6934	507.649108316	208.0
5.7037	507.827754058	202.0
5.7139	508.003954806	198.0
5.7242	508.181168364	229.0
5.7344	508.35595653	192.0
5.7446	508.530046074	217.0
5.7549	508.705136293	174.0
5.7651	508.87783018	198.0
5.7754	509.051516719	171.0
5.7856	509.222826138	165.0
5.7958	509.393450839	149.0
5.8061	509.565056299	172.0
5.8163	509.734313121	145.0
5.8266	509.904542839	165.0
5.8368	510.072442746	167.0
5.847	510.239671565	129.0
5.8573	510.407861622	137.0
5.8675	510.573749785	126.0
5.8778	510.740591481	143.0
5.888	510.905149736	128.0
5.8982	511.069050258	132.0
5.9085	511.233892888	130.0
5.9187	511.396479438	103.0
5.929	511.560000542	122.0
5.9392	511.721283652	108.0
5.9494	511.881922121	111.0
5.9597	512.043483946	93.0
5.9699	512.202834593	110.0
5.9802	512.363101195	96.0
5.9904	512.521174344	91.0
6.0006	512.678615682	89.0
6.0109	512.836961999	80.0
6.0211	512.993141147	70.0
6.0314	513.150218019	83.0
6.0416	513.305145094	77.0
6.0518	513.459452933	82.0
6.0621	513.61464774	68.0
6.0723	513.767718508	73.0
6.0826	513.921669135	66.0
6.0928	514.073512752	75.0
6.103	514.224749456	51.0
6.1133	514.376855475	58.0
6.1235	514.526879731	47.0
6.1338	514.677766332	57.0
6.144	514.826587859	46.0
6.1542	514.974814553	51.0
6.1645	515.12389326	50.0
6.1747	515.270931635	55.0
6.185	515.418815194	52.0
6.1952	515.564674779	35.0
6.2054	515.709951369	52.0
6.2157	515.856063015	38.0
6.2259	516.000174938	28.0
6.2362	516.145115223	40.0
6.2464	516.288071816	34.0
6.2566	516.430457017	26.0
6.2669	516.573660655	32.0
6.2771	516.714904369	33.0
6.2874	516.856959958	27.0
6.2976	516.997071337	34.0
6.3078	517.136622696	35.0
6.3181	517.276976202	21.0
6.3283	517.415408793	24.0
6.3386	517.5546371	20.0
6.3488	517.691959891	21.0
6.359	517.828733809	22.0
6.3693	517.966293909	17.0
6.3795	518.101971325	17.0
6.3898	518.23842862	19.0
6.4	518.373018324	22.0
6.4102	518.507070079	19.0
6.4205	518.641892369	15.0
6.4307	518.774869445	21.0
6.441	518.908610879	24.0
6.4512	519.040521892	6.0
6.4614	519.171905662	9.0
6.4717	519.304044632	18.0
6.4819	519.434375112	13.0
6.4922	519.565454738	8.0
6.5024	519.694740372	8.0
6.5126	519.823509258	17.0
6.5229	519.953018312	11.0
6.5331	520.080754871	9.0
6.5434	520.209225665	16.0
6.5536	520.335938173	8.0
6.5638	520.462144217	11.0
6.5741	520.589075699	6.0
6.5843	520.714269962	7.0
6.5946	520.840183847	12.0
6.6048	520.964374441	8.0
6.615	521.088068651	10.0
6.6253	521.21247386	11.0
6.6355	521.335176426	15.0
6.6458	521.458584292	7.0
6.656	521.580303164	10.0
6.6662	521.701535532	4.0
6.6765	521.823464748	11.0
6.6867	521.943725208	6.0
6.697	522.064676931	9.0
6.7072	522.183973276	8.0
6.7174	522.302792798	8.0
6.7277	522.4222953	9.0
6.7379	522.540162259	10.0
6.7482	522.658706722	5.0
6.7584	522.775628754	8.0
6.7686	522.892083453	9.0
6.7789	523.00920754	9.0
6.7891	523.124728634	2.0
6.7994	523.240913749	4.0
6.8096	523.355508723	4.0
6.8198	523.469645665	10.0
6.8301	523.584438672	4.0
6.8403	523.697660591	11.0
6.8506	523.811533315	6.0
6.8608	523.923847545	4.0
6.871	524.035712861	5.0
6.8813	524.148221183	6.0
6.8915	524.259189686	5.0
6.9018	524.370796041	3.0
6.912	524.480874921	4.0
6.9222	524.590513821	9.0
6.9325	524.70078293	4.0
6.9427	524.809542866	4.0
6.953	524.918927959	6.0
6.9632	525.026815978	2.0
6.9734	525.134272773	3.0
6.9837	525.242347235	6.0
6.9939	525.348942561	3.0
7.0042	525.456150601	3.0
7.0144	525.561891363	3.0
7.0246	525.667209484	6.0
7.0349	525.773132978	2.0
7.0451	525.877606774	4.0
7.0554	525.982681091	4.0
7.0656	526.086317332	9.0
7.0758	526.189539343	2.0
7.0861	526.293354679	5.0
7.0963	526.395749171	3.0
7.1066	526.49873223	4.0
7.1168	526.600305836	5.0
7.127	526.701473456	3.0
7.1373	526.803222592	7.0
7.1475	526.903579162	4.0
7.1578	527.004512586	5.0
7.168	527.104064609	6.0
7.1782	527.203218725	6.0
7.1885	527.302942784	2.0
7.1987	527.401301993	2.0
7.209	527.500226575	2.0
7.2192	527.597797248	7.0
7.2294	527.694977936	5.0
7.2397	527.792717222	2.0
7.2499	527.889118822	5.0
7.2602	527.986074543	2.0
7.2704	528.081703302	3.0
7.2806	528.176949836	4.0
7.2909	528.272743852	2.0
7.3011	528.367226805	4.0
7.3114	528.462252851	5.0
7.3216	528.555978344	5.0
7.3318	528.649329221	7.0
7.3421	528.743216682	12.0
7.3523	528.835819174	5.0
7.3626	528.92895395	1.0
7.3728	529.020814058	2.0
7.383	529.112307005	3.0
7.3933	529.204325858	3.0
7.4035	529.295085315	3.0
7.4138	529.386366462	4.0
7.424	529.476398311	3.0
7.4342	529.566070306	0.0
7.4445	529.65625774	3.0
7.4547	529.745210844	0.0
7.465	529.834675255	6.0
7.4752	529.922915232	1.0
7.4854	530.010802517	4.0
7.4957	530.099194982	1.0
7.5059	530.186377684	6.0
7.5162	530.274061516	2.0
7.5264	530.360545284	2.0
7.5366	530.44668338	5.0
7.5469	530.533316601	2.0
7.5571	530.618764136	6.0
7.5674	530.704702828	4.0
7.5776	530.78946534	0.0
7.5878	530.873889059	5.0
7.5981	530.95879805	0.0
7.6083	531.042544954	2.0
7.6186	531.126773238	4.0
7.6288	531.209848752	2.0
7.639	531.292592216	4.0
7.6493	531.375811293	3.0
7.6595	531.457891411	5.0
7.6698	531.54044333	5.0
7.68	531.621865421	4.0
7.6902	531.702962071	3.0
7.7005	531.784524868	2.0
7.7107	531.864971375	3.0
7.721	531.945880292	2.0
7.7312	532.025681868	2.0
7.7414	532.10516448	3.0
7.7517	532.185103962	1.0
7.7619	532.26394937	4.0
7.7722	532.343247986	1.0
7.7824	532.421461299	2.0
7.7926	532.499361997	3.0
7.8029	532.577710471	4.0
7.8131	532.654986648	10.0
7.8234	532.732707011	3.0
7.8336	532.809363672	3.0
