TL-DOS Lehrstuhlversuch
detector=R1407605
job_number=2015-10-26-012
irradiation_dose [mSv]=0.5

[BEGIN DATA]
time [sec] 	 temperature [K] 	 photoncount 
0.0	228.102563972	0.0
0.0102	228.933246113	0.0
0.0205	229.770046948	0.0
0.0307	230.596722752	1.0
0.041	231.42948774	0.0
0.0512	232.252176528	0.0
0.0614	233.072888703	0.0
0.0717	233.899646135	2.0
0.0819	234.716400058	2.0
0.0922	235.539170081	0.0
0.1024	236.35198484	2.0
0.1126	237.162846711	0.0
0.1229	237.979681282	0.0
0.1331	238.786632406	1.0
0.1434	239.599527426	0.0
0.1536	240.402586667	1.0
0.1638	241.203716457	1.0
0.1741	242.010747262	0.0
0.1843	242.808013244	1.0
0.1946	243.611151781	1.0
0.2048	244.40457259	0.0
0.215	245.196087105	0.0
0.2253	245.993431811	3.0
0.2355	246.781128893	0.0
0.2458	247.574628046	0.0
0.256	248.358526105	0.0
0.2662	249.14054075	0.0
0.2765	249.928315611	0.0
0.2867	250.706558639	0.0
0.297	251.490534102	0.0
0.3072	252.265023704	0.0
0.3174	253.037652498	0.0
0.3277	253.815972372	0.0
0.3379	254.584874816	0.0
0.3482	255.359440893	0.0
0.3584	256.12463496	0.0
0.3686	256.887990552	0.0
0.3789	257.65696892	1.0
0.3891	258.416642886	0.0
0.3994	259.181912511	0.0
0.4096	259.937922609	0.0
0.4198	260.692116298	0.0
0.4301	261.451865277	2.0
0.4403	262.202421528	0.0
0.4506	262.958506277	0.0
0.4608	263.705442634	0.0
0.471	264.450584382	0.0
0.4813	265.201214745	0.0
0.4915	265.942762713	0.0
0.5018	266.689772824	0.0
0.512	267.427744344	0.0
0.5222	268.163942794	0.0
0.5325	268.905563984	1.0
0.5427	269.638211787	0.0
0.553	270.376256176	0.0
0.5632	271.105370456	0.0
0.5734	271.832732947	0.0
0.5837	272.565453094	0.0
0.5939	273.289307553	0.0
0.6042	274.018493827	0.0
0.6144	274.738857173	0.0
0.6246	275.457489756	0.0
0.6349	276.18141569	0.0
0.6451	276.896582344	0.0
0.6554	277.617016821	0.0
0.6656	278.328734263	0.0
0.6758	279.038741714	0.0
0.6861	279.753978986	0.0
0.6963	280.460562107	0.0
0.7066	281.172349826	0.0
0.7168	281.875525133	0.0
0.727	282.577010974	0.0
0.7373	283.283663865	0.0
0.7475	283.981766475	0.0
0.7578	284.685011216	0.0
0.768	285.379746912	0.0
0.7782	286.072813419	0.0
0.7885	286.770984962	0.0
0.7987	287.460708844	0.0
0.809	288.155513141	0.0
0.8192	288.84191052	0.0
0.8294	289.526658743	0.0
0.8397	290.216450731	0.0
0.8499	290.897896449	0.0
0.8602	291.584361605	1.0
0.8704	292.262520744	0.0
0.8806	292.939050522	0.0
0.8909	293.620563527	0.0
0.9011	294.293830436	0.0
0.9114	294.972056538	0.0
0.9216	295.642076315	1.0
0.9318	296.310486285	1.0
0.9421	296.983819674	0.0
0.9523	297.649005937	0.0
0.9626	298.319091873	0.0
0.9728	298.981069976	0.0
0.983	299.641457594	0.0
0.9933	300.306709539	0.0
1.0035	300.963912141	0.0
1.0138	301.62595561	0.0
1.024	302.279988557	0.0
1.0342	302.932450109	0.0
1.0445	303.589717605	0.0
1.0547	304.239032367	0.0
1.065	304.893129895	0.0
1.0752	305.539313046	0.0
1.0854	306.18394366	0.0
1.0957	306.833322537	0.0
1.1059	307.474844131	0.0
1.1162	308.121091087	0.0
1.1264	308.759518655	0.0
1.1366	309.39641232	0.0
1.1469	310.037997259	0.0
1.1571	310.671819219	0.0
1.1674	311.310309826	1.0
1.1776	311.941074895	0.0
1.1878	312.570324471	1.0
1.1981	313.204209016	0.0
1.2083	313.830423754	0.0
1.2186	314.461251106	0.0
1.2288	315.084445642	0.0
1.239	315.706142875	1.0
1.2493	316.332419447	0.0
1.2595	316.951118266	1.0
1.2698	317.574374338	0.0
1.28	318.190089204	0.0
1.2902	318.804324737	1.0
1.3005	319.423084648	0.0
1.3107	320.034357755	0.0
1.321	320.650133418	0.0
1.3312	321.258458386	0.0
1.3414	321.865321777	0.0
1.3517	322.476655243	1.0
1.3619	323.080591763	0.0
1.3722	323.688976798	0.0
1.3824	324.290000563	0.0
1.3926	324.889580292	0.0
1.4029	325.493576446	0.0
1.4131	326.090264433	0.0
1.4234	326.691347545	0.0
1.4336	327.285157736	1.0
1.4438	327.877541224	1.0
1.4541	328.47428813	1.0
1.4643	329.063814582	0.0
1.4746	329.657683408	0.0
1.4848	330.244366605	2.0
1.495	330.829640221	0.0
1.5053	331.419224885	0.0
1.5155	332.001675756	1.0
1.5258	332.588416884	0.0
1.536	333.168058624	3.0
1.5462	333.746307703	0.0
1.5565	334.328816087	0.0
1.5667	334.9042763	0.0
1.577	335.483975277	1.0
1.5872	336.056660074	1.0
1.5974	336.627968925	1.0
1.6077	337.20348596	0.0
1.6179	337.772039417	0.0
1.6282	338.344780763	1.0
1.6384	338.910592116	2.0
1.6486	339.475044036	2.0
1.6589	340.043653633	0.0
1.6691	340.60538323	1.0
1.6794	341.171250453	2.0
1.6896	341.730270857	1.0
1.6998	342.287948144	0.0
1.7101	342.849733207	1.0
1.7203	343.404720845	0.0
1.7306	343.963796448	1.0
1.7408	344.516107409	1.0
1.751	345.067091374	3.0
1.7613	345.622133813	0.0
1.7715	346.17046041	0.0
1.7818	346.722825907	1.0
1.792	347.268507953	0.0
1.8022	347.812878929	3.0
1.8125	348.361259669	0.0
1.8227	348.903005172	4.0
1.833	349.4487411	2.0
1.8432	349.987873792	2.0
1.8534	350.525711149	3.0
1.8637	351.067510145	3.0
1.8739	351.602753541	0.0
1.8842	352.141939468	3.0
1.8944	352.674601412	3.0
1.9046	353.205983569	1.0
1.9149	353.741279816	0.0
1.9251	354.270099143	1.0
1.9354	354.802813684	2.0
1.9456	355.329082543	2.0
1.9558	355.854086975	0.0
1.9661	356.38295852	1.0
1.9763	356.905430882	5.0
1.9866	357.431751706	3.0
1.9968	357.951704211	1.0
2.007	358.470407465	2.0
2.0173	358.992931418	1.0
2.0275	359.509132992	4.0
2.0378	360.029136839	2.0
2.048	360.542848799	3.0
2.0582	361.055326502	6.0
2.0685	361.571579048	6.0
2.0787	362.081585097	5.0
2.089	362.595347782	4.0
2.0992	363.102894099	2.0
2.1094	363.609220971	6.0
2.1197	364.119277379	4.0
2.1299	364.623162263	3.0
2.1402	365.130758695	8.0
2.1504	365.632213368	6.0
2.1606	366.132463232	8.0
2.1709	366.636397871	5.0
2.1811	367.134235056	2.0
2.1914	367.635739243	9.0
2.2016	368.131175385	4.0
2.2118	368.625421179	5.0
2.2221	369.123307522	9.0
2.2323	369.615169594	12.0
2.2426	370.110654657	12.0
2.2528	370.600144503	12.0
2.263	371.088458288	14.0
2.2733	371.580368928	7.0
2.2835	372.066327601	7.0
2.2938	372.55586578	15.0
2.304	373.0394807	5.0
2.3142	373.521933673	10.0
2.3245	374.007940331	11.0
2.3347	374.488066458	8.0
2.345	374.971729131	13.0
2.3552	375.449539634	12.0
2.3654	375.926202138	16.0
2.3757	376.406375674	14.0
2.3859	376.880739259	20.0
2.3962	377.358596943	17.0
2.4064	377.830672696	18.0
2.4166	378.301614228	15.0
2.4269	378.776024653	10.0
2.4371	379.244694858	16.0
2.4474	379.716817226	17.0
2.4576	380.183227059	24.0
2.4678	380.648516283	21.0
2.4781	381.117232766	23.0
2.4883	381.580277924	18.0
2.4986	382.046733812	27.0
2.5088	382.507545727	20.0
2.519	382.967250483	25.0
2.5293	383.430341364	24.0
2.5395	383.887828988	32.0
2.5498	384.348686405	28.0
2.56	384.80396759	29.0
2.5702	385.258154904	22.0
2.5805	385.715687701	33.0
2.5907	386.167684494	41.0
2.601	386.623010634	29.0
2.6112	387.072827468	36.0
2.6214	387.521563562	36.0
2.6317	387.973604985	28.0
2.6419	388.420176847	24.0
2.6522	388.870038098	26.0
2.6624	389.314456166	43.0
2.6726	389.757806465	52.0
2.6829	390.204422422	42.0
2.6931	390.645634465	53.0
2.7034	391.090096416	33.0
2.7136	391.529180516	46.0
2.7238	391.96720966	39.0
2.7341	392.408465269	56.0
2.7443	392.844381821	56.0
2.7546	393.283509277	56.0
2.7648	393.717323426	40.0
2.775	394.150095282	62.0
2.7853	394.586054878	46.0
2.7955	395.016739498	54.0
2.8058	395.450596483	49.0
2.816	395.879203932	60.0
2.8262	396.306781599	58.0
2.8365	396.737508745	64.0
2.8467	397.163024226	72.0
2.857	397.591673998	74.0
2.8672	398.015137239	68.0
2.8774	398.437583057	62.0
2.8877	398.863140555	66.0
2.8979	399.283548938	65.0
2.9082	399.707053994	79.0
2.9184	400.125434769	55.0
2.9286	400.542810332	52.0
2.9389	400.963260227	66.0
2.9491	401.378622809	76.0
2.9594	401.797044896	76.0
2.9696	402.210404205	65.0
2.9798	402.622770367	72.0
2.9901	403.038173963	66.0
3.0003	403.448551303	83.0
3.0106	403.861951429	69.0
3.0208	404.27034954	86.0
3.031	404.677766424	76.0
3.0413	405.088184287	69.0
3.0515	405.49363622	74.0
3.0618	405.902074657	67.0
3.072	406.305571117	75.0
3.0822	406.708098125	78.0
3.0925	407.113590093	69.0
3.1027	407.514175734	75.0
3.113	407.917712035	57.0
3.1232	408.316365672	76.0
3.1334	408.714061493	63.0
3.1437	409.114686689	61.0
3.1539	409.510464444	67.0
3.1642	409.909157445	69.0
3.1744	410.303026383	62.0
3.1846	410.695949002	78.0
3.1949	411.091765837	72.0
3.2051	411.482793411	62.0
3.2154	411.876701241	55.0
3.2256	412.265842908	56.0
3.2358	412.654049614	45.0
3.2461	413.045115799	68.0
3.2563	413.431450203	61.0
3.2666	413.820630295	54.0
3.2768	414.205101429	46.0
3.287	414.588648822	51.0
3.2973	414.975021374	43.0
3.3075	415.356718938	58.0
3.3178	415.741228035	50.0
3.328	416.121084691	51.0
3.3382	416.500028693	42.0
3.3485	416.881763946	35.0
3.3587	417.258880321	59.0
3.369	417.638774485	32.0
3.3792	418.014072047	36.0
3.3894	418.388467909	44.0
3.3997	418.765621522	42.0
3.4099	419.138211692	26.0
3.4202	419.513546312	48.0
3.4304	419.884339498	34.0
3.4406	420.254241808	47.0
3.4509	420.626868769	33.0
3.4611	420.994987058	34.0
3.4714	421.365816858	28.0
3.4816	421.732159732	44.0
3.4918	422.097622421	38.0
3.5021	422.46577706	31.0
3.5123	422.829477141	28.0
3.5226	423.195856188	27.0
3.5328	423.557802163	42.0
3.543	423.918878516	33.0
3.5533	424.28261451	34.0
3.5635	424.641949411	30.0
3.5738	425.003931125	54.0
3.584	425.361532971	47.0
3.5942	425.718275635	44.0
3.6045	426.077646017	48.0
3.6147	426.432668129	30.0
3.625	426.790305287	51.0
3.6352	427.143615145	51.0
3.6454	427.496076132	44.0
3.6557	427.8511333	37.0
3.6659	428.201894385	43.0
3.6762	428.55523913	40.0
3.6864	428.904308513	42.0
3.6966	429.252539213	43.0
3.7069	429.603334934	51.0
3.7171	429.949886134	36.0
3.7274	430.298989985	47.0
3.7376	430.643869787	51.0
3.7478	430.987920972	36.0
3.7581	431.334506393	43.0
3.7683	431.676898236	44.0
3.7786	432.021812093	48.0
3.7888	432.362552598	44.0
3.799	432.702474432	62.0
3.8093	433.044900084	50.0
3.8195	433.383182492	68.0
3.8298	433.723956643	46.0
3.84	434.060607532	68.0
3.8502	434.396449575	57.0
3.8605	434.734765386	62.0
3.8707	435.06898768	62.0
3.881	435.40567181	59.0
3.8912	435.738282167	66.0
3.9014	436.070093386	52.0
3.9117	436.404348682	58.0
3.9219	436.734559592	57.0
3.9322	437.067202792	58.0
3.9424	437.395821112	76.0
3.9526	437.723649885	71.0
3.9629	438.053893401	70.0
3.9731	438.380141072	71.0
3.9834	438.708791841	72.0
3.9936	439.033466036	63.0
4.0038	439.357360161	63.0
4.0141	439.683640047	65.0
4.0243	440.005972048	80.0
4.0346	440.330678302	77.0
4.0448	440.651455712	62.0
4.055	440.971462413	69.0
4.0653	441.293826242	64.0
4.0755	441.612289567	60.0
4.0858	441.933098651	56.0
4.096	442.250026044	69.0
4.1062	442.566191979	76.0
4.1165	442.884686751	66.0
4.1267	443.199327834	68.0
4.137	443.516286521	71.0
4.1472	443.829410106	72.0
4.1574	444.141781373	64.0
4.1677	444.456453524	72.0
4.1779	444.76731824	76.0
4.1882	445.080472744	84.0
4.1984	445.389838175	72.0
4.2086	445.698460316	73.0
4.2189	446.009355728	69.0
4.2291	446.316489401	55.0
4.2394	446.625885379	61.0
4.2496	446.931537762	63.0
4.2598	447.236455777	83.0
4.2701	447.543619777	75.0
4.2803	447.847067187	54.0
4.2906	448.152749751	67.0
4.3008	448.45473365	81.0
4.311	448.755991995	68.0
4.3213	449.059469369	69.0
4.3315	449.359274761	50.0
4.3418	449.661288478	67.0
4.352	449.959647924	77.0
4.3622	450.257290523	65.0
4.3725	450.557125518	59.0
4.3827	450.853332602	63.0
4.393	451.151721508	80.0
4.4032	451.4465	59.0
4.4134	451.740570251	58.0
4.4237	452.036806583	74.0
4.4339	452.329458547	61.0
4.4442	452.624266147	50.0
4.4544	452.915506666	55.0
4.4646	453.206047443	63.0
4.4749	453.498728304	46.0
4.4851	453.787867818	54.0
4.4954	454.079137094	59.0
4.5056	454.366882103	71.0
4.5158	454.653935768	50.0
4.5261	454.943103831	64.0
4.5363	455.228773051	39.0
4.5466	455.516546472	55.0
4.5568	455.800837924	50.0
4.567	456.08444633	52.0
4.5773	456.370143757	52.0
4.5875	456.652384334	48.0
4.5978	456.936703857	61.0
4.608	457.217583202	46.0
4.6182	457.497787699	49.0
4.6285	457.780056145	48.0
4.6387	458.05890923	71.0
4.649	458.33981631	59.0
4.6592	458.617324501	53.0
4.6694	458.894165943	62.0
4.6797	459.173046563	60.0
4.6899	459.448552813	56.0
4.7002	459.726088406	57.0
4.7104	460.000265904	55.0
4.7206	460.273784656	60.0
4.7309	460.54931811	44.0
4.7411	460.821517695	54.0
4.7514	461.095722266	62.0
4.7616	461.366609046	48.0
4.7718	461.636844987	54.0
4.7821	461.90907145	58.0
4.7923	462.178004056	36.0
4.8026	462.448917584	44.0
4.8128	462.716553143	48.0
4.823	462.983545673	50.0
4.8333	463.252504835	41.0
4.8435	463.518209673	71.0
4.8538	463.785871659	69.0
4.864	464.050295017	56.0
4.8742	464.314083065	70.0
4.8845	464.57981414	65.0
4.8947	464.842329951	41.0
4.905	465.106779419	70.0
4.9152	465.36802913	52.0
4.9254	465.628651156	46.0
4.9357	465.891192889	59.0
4.9459	466.150557948	43.0
4.9562	466.411833455	51.0
4.9664	466.66994761	55.0
4.9766	466.927441613	51.0
4.9869	467.186832282	50.0
4.9971	467.443084405	58.0
5.0074	467.701224046	54.0
5.0176	467.956240278	54.0
5.0278	468.210643801	59.0
5.0381	468.466921226	46.0
5.0483	468.720097774	54.0
5.0586	468.975139187	49.0
5.0688	469.227094677	45.0
5.079	469.478444813	65.0
5.0893	469.73164636	61.0
5.0995	469.981784246	46.0
5.1098	470.233764615	45.0
5.12	470.4826961	44.0
5.1302	470.731029495	49.0
5.1405	470.981192081	52.0
5.1507	471.228327777	53.0
5.161	471.477283841	59.0
5.1712	471.723227614	44.0
5.1814	471.968580477	48.0
5.1917	472.215740575	70.0
5.2019	472.459910113	42.0
5.2122	472.705878172	47.0
5.2224	472.948870092	55.0
5.2326	473.191278194	51.0
5.2429	473.435471842	52.0
5.2531	473.676710822	57.0
5.2634	473.919726737	57.0
5.2736	474.159802234	50.0
5.2838	474.399300919	48.0
5.2941	474.64056372	42.0
5.3043	474.878907315	49.0
5.3146	475.119006518	53.0
5.3248	475.356200594	58.0
5.335	475.592824782	48.0
5.3453	475.831191912	45.0
5.3555	476.066674874	43.0
5.3658	476.303892371	55.0
5.376	476.53823961	42.0
5.3862	476.772023801	54.0
5.3965	477.007530015	60.0
5.4067	477.240186676	47.0
5.417	477.474557055	55.0
5.4272	477.706091625	52.0
5.4374	477.937069904	48.0
5.4477	478.169749539	36.0
5.4579	478.399613821	49.0
5.4682	478.631171254	46.0
5.4784	478.859926913	46.0
5.4886	479.088132957	44.0
5.4989	479.318019938	39.0
5.5091	479.545125356	47.0
5.5194	479.773903603	46.0
5.5296	479.999913704	48.0
5.5398	480.225380787	44.0
5.5501	480.452508631	40.0
5.5603	480.676888298	46.0
5.5706	480.902920715	41.0
5.5808	481.126218211	44.0
5.591	481.348979206	44.0
5.6013	481.573381028	59.0
5.6115	481.795067658	41.0
5.6218	482.018387203	46.0
5.632	482.239004649	45.0
5.6422	482.459092035	43.0
5.6525	482.680800555	46.0
5.6627	482.89982647	61.0
5.673	483.120465702	41.0
5.6832	483.338435266	48.0
5.6934	483.555881131	52.0
5.7037	483.774928674	41.0
5.7139	483.991325809	40.0
5.7242	484.209316896	49.0
5.7344	484.424670359	48.0
5.7446	484.639506408	27.0
5.7549	484.855924911	42.0
5.7651	485.069724816	44.0
5.7754	485.285099543	41.0
5.7856	485.497868303	42.0
5.7958	485.710125859	34.0
5.8061	485.923946876	40.0
5.8163	486.135180724	50.0
5.8266	486.347970493	44.0
5.8368	486.558185572	46.0
5.847	486.767895582	40.0
5.8573	486.979150288	55.0
5.8675	487.187848878	42.0
5.8778	487.398084714	45.0
5.888	487.605776761	45.0
5.8982	487.812969801	41.0
5.9085	488.021688998	37.0
5.9187	488.227882758	39.0
5.929	488.435595313	46.0
5.9392	488.64079461	54.0
5.9494	488.84550089	48.0
5.9597	489.05171501	55.0
5.9699	489.255434002	48.0
5.9802	489.460653561	47.0
5.9904	489.663390027	47.0
6.0006	489.865639393	48.0
6.0109	490.069378501	42.0
6.0211	490.270652429	47.0
6.0314	490.473408914	37.0
6.0416	490.673712108	50.0
6.0518	490.873534048	42.0
6.0621	491.07482785	50.0
6.0723	491.273686059	41.0
6.0826	491.474009032	37.0
6.0928	491.671908158	54.0
6.103	491.869331807	54.0
6.1133	492.068209652	41.0
6.1235	492.264681136	33.0
6.1338	492.462599804	33.0
6.144	492.658123717	52.0
6.1542	492.853177858	44.0
6.1645	493.049668743	41.0
6.1747	493.243782149	41.0
6.185	493.439325368	48.0
6.1952	493.632502575	34.0
6.2054	493.825215649	49.0
6.2157	494.019348222	35.0
6.2259	494.211131851	38.0
6.2362	494.404328132	47.0
6.2464	494.595186798	38.0
6.2566	494.785586902	37.0
6.2669	494.977389469	30.0
6.2771	495.166871283	55.0
6.2874	495.357748795	33.0
6.2976	495.546316748	54.0
6.3078	495.734431643	36.0
6.3181	495.923932167	45.0
6.3283	496.111139794	38.0
6.3386	496.299726366	43.0
6.3488	496.4860311	43.0
6.359	496.671888213	42.0
6.3693	496.859114325	38.0
6.3795	497.044075058	43.0
6.3898	497.230398188	52.0
6.4	497.414466866	45.0
6.4102	497.598093295	46.0
6.4205	497.783072292	64.0
6.4307	497.965813101	50.0
6.441	498.149899954	47.0
6.4512	498.331759413	51.0
6.4614	498.513181931	41.0
6.4717	498.695940784	36.0
6.4819	498.876488311	50.0
6.4922	499.058365727	37.0
6.5024	499.238042483	48.0
6.5126	499.417287543	52.0
6.5229	499.597852897	37.0
6.5331	499.776233467	45.0
6.5434	499.955927965	41.0
6.5536	500.133448214	45.0
6.5638	500.310541949	44.0
6.5741	500.488940132	37.0
6.5843	500.665179753	58.0
6.5946	500.842717532	45.0
6.6048	501.018107158	51.0
6.615	501.193075388	41.0
6.6253	501.369332411	64.0
6.6355	501.543456779	48.0
6.6458	501.718863723	43.0
6.656	501.892148298	34.0
6.6662	502.065016534	47.0
6.6765	502.239158095	42.0
6.6867	502.411192597	35.0
6.697	502.584494283	46.0
6.7072	502.755699071	48.0
6.7174	502.926492518	41.0
6.7277	503.098544007	39.0
6.7379	503.268513727	47.0
6.7482	503.43973542	39.0
6.7584	503.608885384	41.0
6.7686	503.777628944	45.0
6.7789	503.947615447	34.0
6.7891	504.115545165	33.0
6.7994	504.284711831	51.0
6.8096	504.451831633	32.0
6.8198	504.618549909	32.0
6.8301	504.786496209	35.0
6.8403	504.952410411	36.0
6.8506	505.119546715	36.0
6.8608	505.284660721	42.0
6.871	505.44937802	43.0
6.8813	505.615308604	43.0
6.8915	505.77923148	19.0
6.9018	505.94436179	31.0
6.912	506.107494074	41.0
6.9222	506.270234413	33.0
6.9325	506.434173475	30.0
6.9427	506.596128925	47.0
6.953	506.759277317	18.0
6.9632	506.920451664	24.0
6.9734	507.08123877	32.0
6.9837	507.243210212	40.0
6.9939	507.403221849	34.0
7.0042	507.564412111	32.0
7.0144	507.723652021	38.0
7.0246	507.882509337	24.0
7.0349	508.042536774	24.0
7.0451	508.200627929	25.0
7.0554	508.359883562	28.0
7.0656	508.517212252	25.0
7.0758	508.674162939	28.0
7.0861	508.832269704	29.0
7.0963	508.988463427	42.0
7.1066	509.145807651	32.0
7.1168	509.301248059	35.0
7.127	509.456315002	30.0
7.1373	509.612524147	24.0
7.1475	509.76684321	30.0
7.1578	509.922298967	20.0
7.168	510.075873756	32.0
7.1782	510.229079564	30.0
7.1885	510.383413864	32.0
7.1987	510.535880768	18.0
7.209	510.689470722	32.0
7.2192	510.841202285	20.0
7.2294	510.992569294	21.0
7.2397	511.145051253	28.0
7.2499	511.295688227	21.0
7.2602	511.447434772	29.0
7.2704	511.597345232	19.0
7.2806	511.746895512	29.0
7.2909	511.89754736	27.0
7.3011	512.046376368	24.0
7.3114	512.19630163	21.0
7.3216	512.344412842	34.0
7.3318	512.492168199	26.0
7.3421	512.641011902	16.0
7.3523	512.788054642	16.0
7.3626	512.93618048	21.0
7.3728	513.08251404	22.0
7.383	513.228496016	14.0
7.3933	513.375553276	20.0
7.4035	513.520831188	22.0
7.4138	513.667179198	19.0
7.424	513.811756442	18.0
7.4342	513.955986321	15.0
7.4445	514.101278578	12.0
7.4547	514.244812844	22.0
7.465	514.389404365	23.0
7.4752	514.532246372	16.0
7.4854	514.674745184	18.0
7.4957	514.818293622	12.0
7.5059	514.96010517	18.0
7.5162	515.102961282	18.0
7.5264	515.244088879	11.0
7.5366	515.384877399	15.0
7.5469	515.526702949	24.0
7.5571	515.666812454	14.0
7.5674	515.807953986	10.0
7.5776	515.94738775	14.0
7.5878	516.086486507	16.0
7.5981	516.226609846	8.0
7.6083	516.365037736	14.0
7.6186	516.504485268	16.0
7.6288	516.642245527	10.0
7.639	516.779674801	4.0
7.6493	516.91811636	8.0
7.6595	517.054882819	7.0
7.6698	517.192656681	13.0
7.68	517.328763522	10.0
7.6902	517.46454335	12.0
7.7005	517.601323313	11.0
7.7107	517.736448282	8.0
7.721	517.872568563	9.0
7.7312	518.00704183	9.0
7.7414	518.141192009	6.0
7.7517	518.27633032	11.0
7.7619	518.409833499	6.0
7.7722	518.544320044	11.0
7.7824	518.677179344	7.0
7.7926	518.809719433	8.0
7.8029	518.943235795	11.0
7.8131	519.07513665	13.0
7.8234	519.208009069	14.0
7.8336	519.339273772	8.0
7.8438	519.470223096	4.0
7.8541	519.602136975	10.0
7.8643	519.732454737	12.0
7.8746	519.863732402	9.0
7.8848	519.993421648	7.0
7.895	520.1227993	10.0
7.9053	520.253129929	8.0
7.9155	520.381883599	9.0
7.9258	520.511585651	8.0
7.936	520.639718348	9.0
7.9462	520.76754319	9.0
7.9565	520.896309573	8.0
7.9667	521.023517922	9.0
