TL-DOS Lehrstuhlversuch
detector=R1407403
job_number=2015-11-17-002
irradiation_dose [mSv]=0.05

[BEGIN DATA]
time [sec] 	 temperature [K] 	 photoncount 
0.0	187.203791399	0.0
0.0102	188.552534694	0.0
0.0205	189.909538198	0.0
0.0307	191.248470209	1.0
0.041	192.595602343	1.0
0.0512	193.924794442	0.0
0.0614	195.249166771	0.0
0.0717	196.581650053	0.0
0.0819	197.896388382	3.0
0.0922	199.219178662	0.0
0.1024	200.524353074	1.0
0.1126	201.824794805	0.0
0.1229	203.133200929	1.0
0.1331	204.424182742	1.0
0.1434	205.723071011	1.0
0.1536	207.00466172	1.0
0.1638	208.281605265	1.0
0.1741	209.566369291	2.0
0.1843	210.834023853	1.0
0.1946	212.109442006	1.0
0.2048	213.367875155	3.0
0.215	214.621745112	0.0
0.2253	215.883294239	0.0
0.2355	217.128043058	0.0
0.2458	218.380415186	0.0
0.256	219.616109218	1.0
0.2662	220.847322512	0.0
0.2765	222.086076218	0.0
0.2867	223.308333188	1.0
0.297	224.538075718	0.0
0.3072	225.751441516	0.0
0.3174	226.960407539	0.0
0.3277	228.176777724	0.0
0.3379	229.376949258	0.0
0.3482	230.584471094	0.0
0.3584	231.775912114	0.0
0.3686	232.963032861	0.0
0.3789	234.157423981	2.0
0.3891	235.33590915	0.0
0.3994	236.521611805	0.0
0.4096	237.691524215	1.0
0.4198	238.857194417	0.0
0.4301	240.030003621	0.0
0.4403	241.187194284	0.0
0.4506	242.351472018	0.0
0.4608	243.500244827	0.0
0.471	244.644852081	0.0
0.4813	245.796469341	0.0
0.4915	246.932750277	0.0
0.5018	248.075990225	0.0
0.512	249.204005412	0.0
0.5222	250.327930314	0.0
0.5325	251.458738554	0.0
0.5427	252.57448759	0.0
0.553	253.697069891	0.0
0.5632	254.804702534	0.0
0.5734	255.908318801	1.0
0.5837	257.018694029	0.0
0.5939	258.114282162	0.0
0.6042	259.216580088	0.0
0.6144	260.304198488	0.0
0.6246	261.387873084	0.0
0.6349	262.478184511	0.0
0.6451	263.553976037	0.0
0.6554	264.636356114	0.0
0.6656	265.704321915	1.0
0.6758	266.768415174	0.0
0.6861	267.839025341	0.0
0.6963	268.895377973	0.0
0.7066	269.958200105	0.0
0.7168	271.006868417	1.0
0.727	272.051734163	0.0
0.7373	273.102999058	0.0
0.7475	274.140264045	0.0
0.7578	275.183881631	1.0
0.768	276.213601149	0.0
0.7782	277.23958681	0.0
0.7885	278.271855993	0.0
0.7987	279.290378236	0.0
0.809	280.315138291	0.0
0.8192	281.326251407	0.0
0.8294	282.333698135	1.0
0.8397	283.347314846	0.0
0.8499	284.347433015	1.0
0.8602	285.353676283	0.0
0.8704	286.346519204	0.0
0.8806	287.335761987	0.0
0.8909	288.331063264	0.0
0.9011	289.31310991	0.0
0.9114	290.301170978	0.0
0.9216	291.276073835	0.0
0.9318	292.247441606	2.0
0.9421	293.224758398	0.0
0.9523	294.189060062	0.0
0.9626	295.159267472	0.0
0.9728	296.116554431	2.0
0.983	297.070370181	0.0
0.9933	298.030027456	0.0
1.0035	298.976904779	0.0
1.0138	299.929581135	0.0
1.024	300.869570505	0.0
1.0342	301.806151388	0.0
1.0445	302.748468244	0.0
1.0547	303.678236073	1.0
1.065	304.61369815	0.0
1.0752	305.536702487	0.0
1.0854	306.456359927	0.0
1.0957	307.381649694	2.0
1.1059	308.294617188	0.0
1.1162	309.213176037	0.0
1.1264	310.119502251	0.0
1.1366	311.022542044	0.0
1.1469	311.931112391	0.0
1.1571	312.827583121	0.0
1.1674	313.729544175	0.0
1.1776	314.619493628	0.0
1.1878	315.506216044	1.0
1.1981	316.398369082	0.0
1.2083	317.278641134	0.0
1.2186	318.164304304	0.0
1.2288	319.038172915	0.0
1.239	319.9088728	0.0
1.2493	320.784905178	0.0
1.2595	321.649271253	0.0
1.2698	322.518931031	0.0
1.28	323.377009372	1.0
1.2902	324.231976243	0.0
1.3005	325.092179252	0.0
1.3107	325.940926761	1.0
1.321	326.794872319	0.0
1.3312	327.637445709	2.0
1.3414	328.476963852	0.0
1.3517	329.321623519	0.0
1.3619	330.155034681	0.0
1.3722	330.993549965	1.0
1.3824	331.82089857	0.0
1.3926	332.645247134	0.0
1.4029	333.474644318	0.0
1.4131	334.292996249	0.0
1.4234	335.116360076	1.0
1.4336	335.928758998	1.0
1.4438	336.738212087	2.0
1.4541	337.552622572	0.0
1.4643	338.356187385	1.0
1.4746	339.164673531	0.0
1.4848	339.962392902	0.0
1.495	340.757219669	0.0
1.5053	341.556914255	0.0
1.5155	342.345959144	0.0
1.5258	343.13983644	1.0
1.536	343.92314151	2.0
1.5462	344.703606244	1.0
1.5565	345.488850838	0.0
1.5667	346.263638169	1.0
1.577	347.043170588	1.0
1.5872	347.812321815	0.0
1.5974	348.578684029	1.0
1.6077	349.349739734	1.0
1.6179	350.110527131	1.0
1.6282	350.875973877	0.0
1.6384	351.631227012	0.0
1.6486	352.38374153	1.0
1.6589	353.14086473	2.0
1.6691	353.887905165	1.0
1.6794	354.639520756	1.0
1.6896	355.381126929	1.0
1.6998	356.120043971	1.0
1.7101	356.863486418	2.0
1.7203	357.597028289	2.0
1.7306	358.335062647	0.0
1.7408	359.06326845	0.0
1.751	359.788833713	2.0
1.7613	360.51884261	0.0
1.7715	361.239129829	0.0
1.7818	361.963828358	3.0
1.792	362.678875927	0.0
1.8022	363.39133067	1.0
1.8125	364.108148753	1.0
1.8227	364.815420823	1.0
1.833	365.527024493	1.0
1.8432	366.229151591	0.0
1.8534	366.928732712	1.0
1.8637	367.632598331	3.0
1.8739	368.327090428	1.0
1.8842	369.025835854	2.0
1.8944	369.715275945	3.0
1.9046	370.402216064	3.0
1.9149	371.093363262	4.0
1.9251	371.775306312	3.0
1.9354	372.461425836	4.0
1.9456	373.138408167	2.0
1.9558	373.812935698	1.0
1.9661	374.491594289	1.0
1.9763	375.161215045	4.0
1.9866	375.83493681	5.0
1.9968	376.499686484	3.0
2.007	377.162025716	5.0
2.0173	377.828421361	4.0
2.0275	378.48594248	3.0
2.0378	379.147490505	3.0
2.048	379.800228559	2.0
2.0582	380.450599726	4.0
2.0685	381.104954011	1.0
2.0787	381.750594125	2.0
2.089	382.400188382	2.0
2.0992	383.041131859	5.0
2.1094	383.679751217	4.0
2.1197	384.32228172	10.0
2.1299	384.956255513	3.0
2.1402	385.594111999	3.0
2.1504	386.22347402	6.0
2.1606	386.850553918	3.0
2.1709	387.481474287	5.0
2.1811	388.103992562	1.0
2.1914	388.730323372	5.0
2.2016	389.348313206	6.0
2.2118	389.964062153	6.0
2.2221	390.583582178	5.0
2.2323	391.194851928	7.0
2.2426	391.809865324	5.0
2.2528	392.41668846	14.0
2.263	393.021311201	5.0
2.2733	393.629636878	8.0
2.2835	394.229861358	10.0
2.2938	394.833761838	10.0
2.304	395.429620052	9.0
2.3142	396.02331763	5.0
2.3245	396.620651234	15.0
2.3347	397.210030025	5.0
2.345	397.803018393	8.0
2.3552	398.388109813	12.0
2.3654	398.971079639	12.0
2.3757	399.557619791	11.0
2.3859	400.136348868	9.0
2.3962	400.718622299	12.0
2.4064	401.293141476	12.0
2.4166	401.865577394	13.0
2.4269	402.441519124	17.0
2.4371	403.009790921	16.0
2.4474	403.581543027	8.0
2.4576	404.145680994	10.0
2.4678	404.707773345	13.0
2.4781	405.273308161	11.0
2.4883	405.831311634	9.0
2.4986	406.39273253	13.0
2.5088	406.946676869	8.0
2.519	407.498612555	6.0
2.5293	408.053928503	9.0
2.5395	408.601849195	13.0
2.5498	409.153125559	13.0
2.56	409.697060462	9.0
2.5702	410.239023009	10.0
2.5805	410.784304737	6.0
2.5907	411.322324838	13.0
2.601	411.863639975	12.0
2.6112	412.397746308	8.0
2.6214	412.929915923	7.0
2.6317	413.465344744	13.0
2.6419	413.993643151	9.0
2.6522	414.525177055	11.0
2.6624	415.049632413	11.0
2.6726	415.572186049	10.0
2.6829	416.097939999	7.0
2.6931	416.616692377	5.0
2.7034	417.138621789	8.0
2.7136	417.65360056	9.0
2.7238	418.166711971	7.0
2.7341	418.682965869	12.0
2.7443	419.192344709	3.0
2.7546	419.704843176	9.0
2.7648	420.210516595	6.0
2.775	420.714356398	9.0
2.7853	421.221281904	3.0
2.7955	421.721456579	3.0
2.8058	422.224694513	8.0
2.816	422.721230723	14.0
2.8262	423.215966449	10.0
2.8365	423.713732121	8.0
2.8467	424.204868947	5.0
2.857	424.699013678	11.0
2.8672	425.186577783	5.0
2.8774	425.672373937	4.0
2.8877	426.161145289	14.0
2.8979	426.643407572	13.0
2.9082	427.128623411	4.0
2.9184	427.607377531	6.0
2.9286	428.084395646	10.0
2.9389	428.564335198	6.0
2.9491	429.037883297	7.0
2.9594	429.514331583	11.0
2.9696	429.984434909	11.0
2.9798	430.452833598	8.0
2.9901	430.924100937	6.0
3.0003	431.389092312	12.0
3.0106	431.856931468	13.0
3.0208	432.318540315	12.0
3.031	432.778475327	12.0
3.0413	433.241227153	16.0
3.0515	433.697816418	9.0
3.0618	434.157202007	4.0
3.072	434.610469865	12.0
3.0822	435.062094132	13.0
3.0925	435.516484316	11.0
3.1027	435.964823293	16.0
3.113	436.415908066	18.0
3.1232	436.860985651	9.0
3.1334	437.304449344	6.0
3.1437	437.750628975	12.0
3.1539	438.190866741	6.0
3.1642	438.633800688	6.0
3.1744	439.070835993	13.0
3.1846	439.506286569	18.0
3.1949	439.944404008	8.0
3.2051	440.376686946	8.0
3.2154	440.811617348	8.0
3.2256	441.240755693	13.0
3.2358	441.668337943	10.0
3.2461	442.098538868	14.0
3.2563	442.523010719	10.0
3.2666	442.950082194	8.0
3.2768	443.371466272	8.0
3.287	443.791322372	22.0
3.2973	444.21374983	11.0
3.3075	444.630551734	15.0
3.3178	445.049906289	16.0
3.328	445.463676214	9.0
3.3382	445.875945772	7.0
3.3485	446.290740224	14.0
3.3587	446.700010773	14.0
3.369	447.111787848	9.0
3.3792	447.518081204	7.0
3.3894	447.922901303	15.0
3.3997	448.330200673	12.0
3.4099	448.732075953	12.0
3.4202	449.136412469	13.0
3.4304	449.535364353	15.0
3.4406	449.9328696	8.0
3.4509	450.33280932	8.0
3.4611	450.72742296	11.0
3.4714	451.124453362	8.0
3.4816	451.516196429	12.0
3.4918	451.906519001	10.0
3.5021	452.299232054	7.0
3.5123	452.686715267	8.0
3.5226	453.076571573	11.0
3.5328	453.461236083	8.0
3.543	453.844505764	9.0
3.5533	454.230122733	6.0
3.5635	454.610604362	9.0
3.5738	454.993416203	11.0
3.584	455.371130061	9.0
3.5942	455.747474293	10.0
3.6045	456.1261234	7.0
3.6147	456.499729958	4.0
3.625	456.875624624	12.0
3.6352	457.246513423	8.0
3.6454	457.616057346	11.0
3.6557	457.987864494	6.0
3.6659	458.354720211	11.0
3.6762	458.72382269	11.0
3.6864	459.088009755	11.0
3.6966	459.450876246	8.0
3.7069	459.815965067	8.0
3.7171	460.176191925	7.0
3.7274	460.538624948	11.0
3.7376	460.896231376	7.0
3.7478	461.252541091	14.0
3.7581	461.611032981	14.0
3.7683	461.96475076	4.0
3.7786	462.320634841	13.0
3.7888	462.67177954	11.0
3.799	463.021650956	7.0
3.8093	463.373665116	14.0
3.8195	463.720991432	7.0
3.8298	464.070444905	6.0
3.84	464.415244634	5.0
3.8502	464.758794088	7.0
3.8605	465.104447568	8.0
3.8707	465.44549791	10.0
3.881	465.788636972	8.0
3.8912	466.127206381	12.0
3.9014	466.464548107	6.0
3.9117	466.80395584	12.0
3.9219	467.138843611	10.0
3.9322	467.47578236	10.0
3.9424	467.808234027	7.0
3.9526	468.139480195	10.0
3.9629	468.472755038	7.0
3.9731	468.801591592	9.0
3.9834	469.132442064	10.0
3.9936	469.458886533	7.0
4.0038	469.784147285	3.0
4.0141	470.111400055	3.0
4.0243	470.434294734	9.0
4.0346	470.759166941	13.0
4.0448	471.079712758	9.0
4.055	471.399096247	5.0
4.0653	471.72043576	7.0
4.0755	472.03749593	6.0
4.0858	472.356497895	10.0
4.096	472.671251645	10.0
4.1062	472.98486407	9.0
4.1165	473.300397175	10.0
4.1267	473.611728261	4.0
4.137	473.924966056	5.0
4.1472	474.234032399	12.0
4.1574	474.541978039	7.0
4.1677	474.851809654	14.0
4.1779	475.157515178	8.0
4.1882	475.465092957	10.0
4.1984	475.768574661	8.0
4.2086	476.070955912	7.0
4.2189	476.375189059	15.0
4.2291	476.675370671	3.0
4.2394	476.977390708	8.0
4.2496	477.275388683	10.0
4.2598	477.57230609	9.0
4.2701	477.87104193	12.0
4.2803	478.165799445	5.0
4.2906	478.462362165	8.0
4.3008	478.754975498	6.0
4.311	479.046527789	15.0
4.3213	479.339865656	7.0
4.3315	479.629297082	8.0
4.3418	479.920501095	10.0
4.352	480.207827085	7.0
4.3622	480.494111205	9.0
4.3725	480.782148636	8.0
4.3827	481.066350213	10.0
4.393	481.352292348	7.0
4.4032	481.634426533	11.0
4.4134	481.915537674	8.0
4.4237	482.198370445	6.0
4.4339	482.477436674	14.0
4.4442	482.758212009	4.0
4.4544	483.035248202	4.0
4.4646	483.311279837	6.0
4.4749	483.589001993	7.0
4.4851	483.863025666	10.0
4.4954	484.138727563	10.0
4.5056	484.410757881	7.0
4.5158	484.681801793	6.0
4.5261	484.95450568	4.0
4.5363	485.223577913	4.0
4.5466	485.494298045	11.0
4.5568	485.761412942	7.0
4.567	486.027559256	8.0
4.5773	486.295335551	3.0
4.5875	486.559545813	10.0
4.5978	486.825374198	9.0
4.608	487.087662493	11.0
4.6182	487.348999706	9.0
4.6285	487.611937446	10.0
4.6387	487.871373591	11.0
4.649	488.13239862	9.0
4.6592	488.389947526	7.0
4.6694	488.646562535	5.0
4.6797	488.904749152	4.0
4.6899	489.159497444	6.0
4.7002	489.415805911	10.0
4.7104	489.668701065	7.0
4.7206	489.920679199	6.0
4.7309	490.174200541	10.0
4.7411	490.424345688	9.0
4.7514	490.676022817	8.0
4.7616	490.924348311	1.0
4.7718	491.171773354	4.0
4.7821	491.42071372	7.0
4.7923	491.666338897	2.0
4.8026	491.913468375	7.0
4.8128	492.157306779	6.0
4.823	492.400261003	9.0
4.8333	492.64470317	11.0
4.8435	492.88589005	12.0
4.8538	493.128554049	7.0
4.864	493.367986443	6.0
4.8742	493.606550632	10.0
4.8845	493.846575879	5.0
4.8947	494.08340466	11.0
4.905	494.321683869	8.0
4.9152	494.556789866	5.0
4.9254	494.791043346	5.0
4.9357	495.026731483	10.0
4.9459	495.259280913	9.0
4.9562	495.493254563	8.0
4.9664	495.724112338	4.0
4.9766	495.954133002	5.0
4.9869	496.185562399	7.0
4.9971	496.413909803	2.0
5.0074	496.643655692	3.0
5.0176	496.870342008	6.0
5.0278	497.09620634	8.0
5.0381	497.323453949	1.0
5.0483	497.547675255	10.0
5.0586	497.773269777	9.0
5.0688	497.99586001	8.0
5.079	498.217643111	8.0
5.0893	498.440784495	3.0
5.0995	498.660954259	3.0
5.1098	498.882472426	3.0
5.12	499.10104059	10.0
5.1302	499.318816206	4.0
5.1405	499.537925562	9.0
5.1507	499.754116993	5.0
5.161	499.971632462	8.0
5.1712	500.186251233	8.0
5.1814	500.400091777	8.0
5.1917	500.615241961	6.0
5.2019	500.827526946	5.0
5.2122	501.041112043	5.0
5.2224	501.251852785	8.0
5.2326	501.461829361	6.0
5.2429	501.673091912	5.0
5.2531	501.881541037	5.0
5.2634	502.091266783	6.0
5.2736	502.298199568	4.0
5.2838	502.504381996	8.0
5.2941	502.711827163	3.0
5.3043	502.916509739	6.0
5.3146	503.122445869	7.0
5.3248	503.325639505	6.0
5.335	503.528096343	6.0
5.3453	503.731793102	2.0
5.3555	503.93277719	7.0
5.3658	504.13499218	6.0
5.376	504.334514232	4.0
5.3862	504.533312799	8.0
5.3965	504.733328882	3.0
5.4067	504.930681311	5.0
5.417	505.1292424	5.0
5.4272	505.32515921	5.0
5.4374	505.520365608	5.0
5.4477	505.716767523	2.0
5.4579	505.910553914	7.0
5.4682	506.105527126	3.0
5.4784	506.297903839	3.0
5.4886	506.489582977	2.0
5.4989	506.68243603	3.0
5.5091	506.872720819	2.0
5.5194	507.064170984	2.0
5.5296	507.253071568	7.0
5.5398	507.441287182	10.0
5.5501	507.630655498	2.0
5.5603	507.817501958	4.0
5.5706	508.005492735	7.0
5.5808	508.190980001	1.0
5.591	508.375794674	3.0
5.6013	508.56174122	6.0
5.6115	508.745211479	5.0
5.6218	508.929805378	2.0
5.632	509.111941003	1.0
5.6422	509.293416187	3.0
5.6525	509.476002794	2.0
5.6627	509.656157857	1.0
5.673	509.837416258	3.0
5.6832	510.016260803	4.0
5.6934	510.194456842	2.0
5.7037	510.37374422	4.0
5.7139	510.550643992	4.0
5.7242	510.728627164	2.0
5.7344	510.904240098	2.0
5.7446	511.079216243	1.0
5.7549	511.255264008	2.0
5.7651	511.428967309	1.0
5.7754	511.603734434	2.0
5.7856	511.77617415	2.0
5.7958	511.947988583	2.0
5.8061	512.120855273	1.0
5.8163	512.291419862	3.0
5.8266	512.463029052	0.0
5.8368	512.632352887	1.0
5.847	512.801062739	4.0
5.8573	512.970805834	2.0
5.8675	513.138288425	1.0
5.8778	513.306796742	2.0
5.888	513.473060999	1.0
5.8982	513.638722367	2.0
5.9085	513.805398308	4.0
5.9187	513.969854591	3.0
5.929	514.135318066	2.0
5.9392	514.29857803	3.0
5.9494	514.461245999	1.0
5.9597	514.624910207	5.0
5.9699	514.786394866	0.0
5.9802	514.948868517	3.0
5.9904	515.109178473	1.0
6.0006	515.268907131	1.0
6.0109	515.429614028	2.0
6.0211	515.588180757	2.0
6.0314	515.747718609	5.0
6.0416	515.905131863	1.0
6.0518	516.061974322	1.0
6.0621	516.219777343	1.0
6.0723	516.375478869	1.0
6.0826	516.532133969	1.0
6.0928	516.686702862	1.0
6.103	516.840711273	1.0
6.1133	516.99566289	2.0
6.1235	517.148550985	1.0
6.1338	517.302375424	2.0
6.144	517.454151351	1.0
6.1542	517.605376925	0.0
6.1645	517.757528661	2.0
6.1747	517.907654161	0.0
6.185	518.058699087	2.0
6.1952	518.207732516	3.0
6.2054	518.356225536	0.0
6.2157	518.505627983	1.0
6.2259	518.653040808	1.0
6.2362	518.801356444	0.0
6.2464	518.94769693	1.0
6.2566	519.093506772	1.0
6.2669	519.240209609	0.0
6.2771	519.384958774	1.0
6.2874	519.530594437	0.0
6.2976	519.67429064	0.0
6.3078	519.817465788	2.0
6.3181	519.961517794	0.0
6.3283	520.10365143	1.0
6.3386	520.246655546	1.0
6.3488	520.387755247	2.0
6.359	520.528343307	0.0
6.3693	520.669792382	2.0
6.3795	520.80935775	2.0
6.3898	520.949777869	1.0
6.4	521.088327985	2.0
6.4102	521.226375705	1.0
6.4205	521.365268881	1.0
6.4307	521.502312389	0.0
6.441	521.640195202	0.0
6.4512	521.776241802	1.0
6.4614	521.911795084	0.0
6.4717	522.048178546	1.0
6.4819	522.182745761	1.0
6.4922	522.318137117	1.0
6.5024	522.451725438	0.0
6.5126	522.584829355	1.0
6.5229	522.718748451	0.0
6.5331	522.850884119	2.0
6.5434	522.983829035	0.0
6.5536	523.115003497	1.0
6.5638	523.245702309	2.0
6.5741	523.377201568	1.0
6.5843	523.506949626	1.0
6.5946	523.637492309	0.0
6.6048	523.766296528	2.0
6.615	523.894633692	0.0
6.6253	524.023756841	1.0
6.6355	524.15116043	1.0
6.6458	524.279344287	0.0
6.656	524.405821093	1.0
6.6662	524.531839283	1.0
6.6765	524.658629255	0.0
6.6867	524.78373074	1.0
6.697	524.909598393	1.0
6.7072	525.03378984	0.0
6.7174	525.157530958	0.0
6.7277	525.282029914	0.0
6.7379	525.404870891	0.0
6.7482	525.528464192	1.0
6.7584	525.650411577	1.0
6.7686	525.771916768	2.0
6.7789	525.894166104	2.0
6.7891	526.01478742	1.0
6.7994	526.136147466	1.0
6.8096	526.255891335	0.0
6.8198	526.375201003	0.0
6.8301	526.495241368	0.0
6.8403	526.61368313	0.0
6.8506	526.732850275	1.0
6.8608	526.850430446	0.0
6.871	526.96758426	1.0
6.8813	527.085455569	0.0
6.8915	527.201757162	1.0
6.9018	527.318771029	0.0
6.912	527.434226598	0.0
6.9222	527.549263515	0.0
6.9325	527.665004961	1.0
6.9427	527.779205055	3.0
6.953	527.894104553	0.0
6.9632	528.007473911	0.0
6.9734	528.120432182	0.0
6.9837	528.234082251	1.0
6.9939	528.346218819	0.0
7.0042	528.459042153	0.0
7.0144	528.570362996	0.0
7.0246	528.68128018	1.0
7.0349	528.792876662	3.0
7.0451	528.902986991	1.0
7.0554	529.013771677	0.0
7.0656	529.12308102	1.0
7.0758	529.231993998	0.0
7.0861	529.341574	0.0
7.0963	529.449694703	2.0
7.1066	529.558477577	0.0
7.1168	529.665811768	0.0
7.127	529.772756755	2.0
7.1373	529.880356713	0.0
7.1475	529.986523741	0.0
7.1578	530.093340975	0.0
7.168	530.198735703	1.0
7.1782	530.303748259	0.0
7.1885	530.409403952	1.0
7.1987	530.513652607	0.0
7.209	530.618539719	0.0
7.2192	530.722030028	1.0
7.2294	530.825145072	3.0
7.2397	530.928891632	0.0
7.2499	531.031256577	0.0
7.2602	531.134248443	1.0
7.2704	531.235868746	1.0
7.2806	531.337120564	0.0
7.2909	531.438992487	0.0
7.3011	531.53950776	1.0
7.3114	531.640638626	0.0
7.3216	531.740422712	1.0
7.3318	531.839844972	1.0
7.3421	531.939876131	1.0
7.3523	532.038575155	2.0
7.3626	532.137878649	0.0
7.3728	532.235859697	2.0
7.383	532.333485458	0.0
7.3933	532.431709115	1.0
7.4035	532.528624708	1.0
7.4138	532.626133848	0.0
7.424	532.722344439	1.0
7.4342	532.818206162	0.0
7.4445	532.914654978	1.0
7.4547	533.009819365	1.0
7.465	533.105566575	2.0
7.4752	533.2000387	0.0
7.4854	533.29416826	1.0
7.4957	533.388874305	3.0
7.5059	533.48231913	1.0
7.5162	533.576336246	0.0
7.5264	533.669101317	0.0
7.5366	533.761530014	0.0
7.5469	533.854524778	1.0
7.5571	533.946281113	2.0
7.5674	534.038599397	1.0
7.5776	534.12968826	0.0
7.5878	534.220446827	0.0
7.5981	534.311761233	0.0
7.6083	534.401859586	1.0
7.6186	534.492509736	0.0
7.6288	534.581952679	1.0
7.639	534.671071294	1.0
7.6493	534.760735705	1.0
7.6595	534.849206036	2.0
7.6698	534.938218193	0.0
7.68	535.026044957	1.0
7.6902	535.113553253	2.0
7.7005	535.201597482	1.0
7.7107	535.288469209	1.0
7.721	535.375872971	0.0
7.7312	535.462112759	2.0
7.7414	535.548039833	3.0
7.7517	535.634493158	0.0
7.7619	535.719795165	1.0
7.7722	535.805619595	0.0
7.7824	535.890301082	1.0
7.7926	535.974675507	2.0
7.8029	536.059566673	0.0
7.8131	536.143327326	2.0
7.8234	536.22760096	0.0
7.8336	536.310752305	1.0
7.8438	536.393602136	2.0
7.8541	536.47695937	0.0
7.8643	536.559206519	3.0
7.8746	536.64195738	0.0
7.8848	536.723606232	0.0
7.895	536.804959017	1.0
7.9053	536.886810037	1.0
7.9155	536.96757103	1.0
7.9258	537.048826634	1.0
7.936	537.12900014	0.0
7.9462	537.20888293	0.0
7.9565	537.289254952	0.0
7.9667	537.368556644	1.0
7.977	537.448344009	1.0
7.9872	537.527068829	1.0
7.9974	537.605508186	0.0
8.0077	537.684427935	1.0
8.0179	537.762296694	0.0
8.0282	537.84064235	2.0
8.0384	537.91794466	0.0
8.0486	537.994966666	0.0
8.0589	538.072460384	2.0
8.0691	538.148922101	2.0
8.0794	538.225852099	0.0
8.0896	538.301757605	0.0
8.0998	538.37738787	1.0
8.1101	538.453481323	2.0
8.1203	538.528561425	1.0
8.1306	538.604101345	0.0
8.1408	538.678635284	0.0
