TL-DOS Lehrstuhlversuch
detector=R1408305
job_number=2015-11-04-004
irradiation_dose [mSv]=0.09

[BEGIN DATA]
time [sec] 	 temperature [K] 	 photoncount 
0.0	204.872291746	0.0
0.0102	206.025790846	1.0
0.0205	207.187171685	1.0
0.0307	208.333893148	4.0
0.041	209.48845004	2.0
0.0512	210.62843369	1.0
0.0614	211.765079632	1.0
0.0717	212.909492156	0.0
0.0819	214.039459485	4.0
0.0922	215.177147764	2.0
0.1024	216.300475722	3.0
0.1126	217.420514737	1.0
0.1229	218.548206863	3.0
0.1331	219.661664843	2.0
0.1434	220.782730967	0.0
0.1536	221.889646581	4.0
0.1638	222.993321305	3.0
0.1741	224.104537324	2.0
0.1843	225.201727165	0.0
0.1946	226.30641399	0.0
0.2048	227.397157053	2.0
0.215	228.484706575	0.0
0.2253	229.579687211	0.0
0.2355	230.660846598	1.0
0.2458	231.749393435	1.0
0.256	232.824200233	0.0
0.2662	233.895860152	0.0
0.2765	234.974842611	0.0
0.2867	236.040205756	0.0
0.297	237.112848417	0.0
0.3072	238.171951788	0.0
0.3174	239.227954256	0.0
0.3277	240.291172279	0.0
0.3379	241.340969974	0.0
0.3482	242.397940826	0.0
0.3584	243.441570204	0.0
0.3686	244.482143985	0.0
0.3789	245.529827898	0.0
0.3891	246.56428756	0.0
0.3994	247.605815576	0.0
0.4096	248.634197043	0.0
0.4198	249.659567557	0.0
0.4301	250.691944321	0.0
0.4403	251.711290045	1.0
0.4506	252.737600853	0.0
0.4608	253.750957188	0.0
0.471	254.761346561	1.0
0.4813	255.77863982	0.0
0.4915	256.783092429	0.0
0.5018	257.794408358	0.0
0.512	258.792959086	0.0
0.5222	259.788586201	0.0
0.5325	260.791016331	0.0
0.5427	261.780793421	0.0
0.553	262.777333553	0.0
0.5632	263.76129499	0.0
0.5734	264.742375529	1.0
0.5837	265.73015969	0.0
0.5939	266.705475675	0.0
0.6042	267.687455893	1.0
0.6144	268.657041195	0.0
0.6246	269.623787691	0.0
0.6349	270.597139865	0.0
0.6451	271.55820603	0.0
0.6554	272.52583906	0.0
0.6656	273.48125827	0.0
0.6758	274.43388015	0.0
0.6861	275.393011195	0.0
0.6963	276.340035736	0.0
0.7066	277.293531198	0.0
0.7168	278.234991288	0.0
0.727	279.173694919	0.0
0.7373	280.118812614	0.0
0.7475	281.052000686	0.0
0.7578	281.991565135	1.0
0.768	282.919270056	0.0
0.7782	283.844258789	0.0
0.7885	284.775567875	0.0
0.7987	285.695121635	0.0
0.809	286.62095861	0.0
0.8192	287.53510933	0.0
0.8294	288.446583548	0.0
0.8397	289.364285775	1.0
0.8499	290.270404426	0.0
0.8602	291.182714492	0.0
0.8704	292.083509045	0.0
0.8806	292.981666201	1.0
0.8909	293.885960371	0.0
0.9011	294.778840207	0.0
0.9114	295.677820999	0.0
0.9216	296.565454524	0.0
0.9318	297.450489186	0.0
0.9421	298.341571197	0.0
0.9523	299.221405643	0.0
0.9626	300.107251907	0.0
0.9728	300.981916694	0.0
0.983	301.854020587	1.0
0.9933	302.732083476	0.0
1.0035	303.599063131	0.0
1.0138	304.471966769	0.0
1.024	305.333852296	0.0
1.0342	306.193214346	0.0
1.0445	307.058448327	0.0
1.0547	307.912761007	0.0
1.065	308.772911116	1.0
1.0752	309.622204094	0.0
1.0854	310.469010465	0.0
1.0957	311.321602975	0.0
1.1059	312.163433749	0.0
1.1162	313.011016665	0.0
1.1264	313.847901077	0.0
1.1366	314.682335212	0.0
1.1469	315.522470949	1.0
1.1571	316.352002184	1.0
1.1674	317.187201519	0.0
1.1776	318.011858661	0.0
1.1878	318.834101325	1.0
1.1981	319.661962288	1.0
1.2083	320.479373685	0.0
1.2186	321.30237037	0.0
1.2288	322.114978887	2.0
1.239	322.925208203	0.0
1.2493	323.740973732	0.0
1.2595	324.546442369	0.0
1.2698	325.357414688	0.0
1.28	326.158150617	0.0
1.2902	326.956542106	0.0
1.3005	327.760388921	0.0
1.3107	328.554089286	0.0
1.321	329.353212923	0.0
1.3312	330.142249727	0.0
1.3414	330.928976345	0.0
1.3517	331.721078584	1.0
1.3619	332.503182617	0.0
1.3722	333.290630686	0.0
1.3824	334.068139295	1.0
1.3926	334.843371471	0.0
1.4029	335.623900728	0.0
1.4131	336.394577857	0.0
1.4234	337.170520943	0.0
1.4336	337.93666979	0.0
1.4438	338.700575463	2.0
1.4541	339.469700824	0.0
1.4643	340.229118002	0.0
1.4746	340.993724198	0.0
1.4848	341.748679254	0.0
1.495	342.501423909	0.0
1.5053	343.259311991	0.0
1.5155	344.007633731	0.0
1.5258	344.761068675	0.0
1.536	345.504993486	0.0
1.5462	346.246740192	0.0
1.5565	346.993555176	0.0
1.5667	347.730943586	0.0
1.577	348.473370495	1.0
1.5872	349.206426219	0.0
1.5974	349.93733566	0.0
1.6077	350.67323933	0.0
1.6179	351.399854153	1.0
1.6282	352.131433859	1.0
1.6384	352.853779298	0.0
1.6486	353.574009812	0.0
1.6589	354.299161586	0.0
1.6691	355.015160229	1.0
1.6794	355.736051215	1.0
1.6896	356.44784285	0.0
1.6998	357.157550462	4.0
1.7101	357.872107432	1.0
1.7203	358.577645001	1.0
1.7306	359.288003434	0.0
1.7408	359.989395463	0.0
1.751	360.688733916	2.0
1.7613	361.392850875	3.0
1.7715	362.088080212	0.0
1.7818	362.788059979	1.0
1.792	363.479204343	2.0
1.8022	364.168325136	1.0
1.8125	364.862154619	0.0
1.8227	365.547226332	5.0
1.833	366.236979068	1.0
1.8432	366.918025492	4.0
1.8534	367.597077909	1.0
1.8637	368.280770221	1.0
1.8739	368.955832717	3.0
1.8842	369.635507845	2.0
1.8944	370.306603864	1.0
1.9046	370.975735009	4.0
1.9149	371.649438258	0.0
1.9251	372.314637777	4.0
1.9354	372.984382535	3.0
1.9456	373.645673529	0.0
1.9558	374.305028357	2.0
1.9661	374.968888488	4.0
1.9763	375.624369132	4.0
1.9866	376.284328608	3.0
1.9968	376.935957832	4.0
2.007	377.585679179	7.0
2.0173	378.239840005	1.0
2.0275	378.885743772	4.0
2.0378	379.536060933	3.0
2.048	380.178169551	3.0
2.0582	380.818398167	2.0
2.0685	381.463001398	4.0
2.0787	382.099468211	3.0
2.089	382.740283935	5.0
2.0992	383.373011048	8.0
2.1094	384.003885626	5.0
2.1197	384.639070904	3.0
2.1299	385.26623864	8.0
2.1402	385.897691749	10.0
2.1504	386.521174424	7.0
2.1606	387.142831631	8.0
2.1709	387.768736557	4.0
2.1811	388.38674108	8.0
2.1914	389.008968365	8.0
2.2016	389.623341668	8.0
2.2118	390.235916174	11.0
2.2221	390.852676337	16.0
2.2323	391.461651528	6.0
2.2426	392.074787782	9.0
2.2528	392.680184805	12.0
2.263	393.283809312	16.0
2.2733	393.891558323	14.0
2.2835	394.491636102	12.0
2.2938	395.095814151	12.0
2.304	395.692366042	14.0
2.3142	396.287171314	13.0
2.3245	396.886040829	15.0
2.3347	397.477351193	17.0
2.345	398.072701919	23.0
2.3552	398.660537909	15.0
2.3654	399.246652799	22.0
2.3757	399.836772552	18.0
2.3859	400.419443596	13.0
2.3962	401.006095971	18.0
2.4064	401.585343404	18.0
2.4166	402.162894883	13.0
2.4269	402.744392712	20.0
2.4371	403.318550661	10.0
2.4474	403.896631771	13.0
2.4576	404.46741613	15.0
2.4678	405.036529313	19.0
2.4781	405.609531188	17.0
2.4883	406.175300422	15.0
2.4986	406.744935499	15.0
2.5088	407.307380432	17.0
2.519	407.868178607	16.0
2.5293	408.432808657	22.0
2.5395	408.99031174	10.0
2.5498	409.551624183	17.0
2.56	410.105851534	14.0
2.5702	410.658456187	16.0
2.5805	411.21483673	23.0
2.5907	411.764194433	17.0
2.601	412.31730584	6.0
2.6112	412.863435671	10.0
2.6214	413.407966513	9.0
2.6317	413.956218077	13.0
2.6419	414.497549408	13.0
2.6522	415.042579601	7.0
2.6624	415.580730221	11.0
2.6726	416.117305214	14.0
2.6829	416.657546568	13.0
2.6931	417.190968796	14.0
2.7034	417.728035844	10.0
2.7136	418.258323833	8.0
2.7238	418.787059216	12.0
2.7341	419.319407392	10.0
2.7443	419.845036074	12.0
2.7546	420.374256321	6.0
2.7648	420.896796557	16.0
2.775	421.417806869	8.0
2.7853	421.942377191	8.0
2.7955	422.460326193	8.0
2.8058	422.981814287	9.0
2.816	423.496719966	10.0
2.8262	424.010118075	11.0
2.8365	424.52702418	6.0
2.8467	425.037405707	11.0
2.857	425.551274617	17.0
2.8672	426.058657284	8.0
2.8774	426.564554408	8.0
2.8877	427.073908275	16.0
2.8979	427.57683289	12.0
2.9082	428.083193936	13.0
2.9184	428.583163507	13.0
2.9286	429.081669238	6.0
2.9389	429.583581208	16.0
2.9491	430.07915786	10.0
2.9594	430.578120735	15.0
2.9696	431.070785518	24.0
2.9798	431.562007849	15.0
2.9901	432.056586651	15.0
3.0003	432.544922698	18.0
3.0106	433.036595494	13.0
3.0208	433.522062215	13.0
3.031	434.006107559	11.0
3.0413	434.493460334	12.0
3.0515	434.974661564	8.0
3.0618	435.459150791	19.0
3.072	435.937524618	20.0
3.0822	436.414497834	23.0
3.0925	436.894730159	11.0
3.1027	437.368900815	17.0
3.113	437.846311429	23.0
3.1232	438.317695991	14.0
3.1334	438.787700407	28.0
3.1437	439.260916314	16.0
3.1539	439.728159116	19.0
3.1642	440.198594539	13.0
3.1744	440.663091954	16.0
3.1846	441.126229386	21.0
3.1949	441.592531389	23.0
3.2051	442.052947556	25.0
3.2154	442.516509699	16.0
3.2256	442.97422059	24.0
3.2358	443.430591369	33.0
3.2461	443.890080482	17.0
3.2563	444.343769755	14.0
3.2666	444.800559039	19.0
3.2768	445.251582561	25.0
3.287	445.701285551	15.0
3.2973	446.154061314	23.0
3.3075	446.601121975	17.0
3.3178	447.051237356	12.0
3.328	447.495671214	13.0
3.3382	447.938803834	17.0
3.3485	448.384964333	18.0
3.3587	448.82549323	22.0
3.369	449.269032215	12.0
3.3792	449.706972688	12.0
3.3894	450.143630934	21.0
3.3997	450.58327282	12.0
3.4099	451.017365385	17.0
3.4202	451.454424059	19.0
3.4304	451.885966018	22.0
3.4406	452.316244484	27.0
3.4509	452.749462998	15.0
3.4611	453.177213268	17.0
3.4714	453.607886312	12.0
3.4816	454.033123242	16.0
3.4918	454.457115139	17.0
3.5021	454.884004129	20.0
3.5123	455.305504769	17.0
3.5226	455.729885478	16.0
3.5328	456.148909499	16.0
3.543	456.566706677	12.0
3.5533	456.98735862	17.0
3.5635	457.40270094	11.0
3.5738	457.82088125	17.0
3.584	458.233783135	16.0
3.5942	458.645476102	10.0
3.6045	459.059982124	15.0
3.6147	459.469256099	24.0
3.625	459.881326601	14.0
3.6352	460.288195797	18.0
3.6454	460.693873738	10.0
3.6557	461.102323635	8.0
3.6659	461.505617926	15.0
3.6762	461.911667886	15.0
3.6864	462.312592534	10.0
3.6966	462.712343332	12.0
3.7069	463.114825585	16.0
3.7171	463.512227559	12.0
3.7274	463.91234494	12.0
3.7376	464.307411892	16.0
3.7478	464.701322145	12.0
3.7581	465.097923945	13.0
3.7683	465.489519692	16.0
3.7786	465.883791172	11.0
3.7888	466.273086012	15.0
3.799	466.661241053	15.0
3.8093	467.052048316	14.0
3.8195	467.437922667	14.0
3.8298	467.826433657	8.0
3.84	468.210040718	16.0
3.8502	468.592524633	21.0
3.8605	468.97762202	10.0
3.8707	469.357858567	20.0
3.881	469.740693231	10.0
3.8912	470.118695614	14.0
3.9014	470.495591261	18.0
3.9117	470.875062197	13.0
3.9219	471.249743311	12.0
3.9322	471.626984582	14.0
3.9424	471.999464175	17.0
3.9526	472.370853201	11.0
3.9629	472.744779889	17.0
3.9731	473.113986738	14.0
3.9834	473.485716338	14.0
3.9936	473.852753831	13.0
4.0038	474.218716691	15.0
4.0141	474.587180137	9.0
4.0243	474.950992701	14.0
4.0346	475.317291159	11.0
4.0448	475.678966063	14.0
4.055	476.039582035	17.0
4.0653	476.402662059	17.0
4.0755	476.761159153	15.0
4.0858	477.12210582	20.0
4.096	477.478496485	17.0
4.1062	477.83384369	20.0
4.1165	478.191618945	9.0
4.1267	478.54487823	13.0
4.137	478.900551298	17.0
4.1472	479.25173493	11.0
4.1574	479.601890347	14.0
4.1677	479.954438339	15.0
4.1779	480.302536341	16.0
4.1882	480.65301286	21.0
4.1984	480.999065536	14.0
4.2086	481.34410502	13.0
4.2189	481.691502122	13.0
4.2291	482.03451425	8.0
4.2394	482.379870144	6.0
4.2496	482.720866829	12.0
4.2598	483.060865125	11.0
4.2701	483.403186594	16.0
4.2803	483.741187155	8.0
4.2906	484.081497239	7.0
4.3008	484.417511804	12.0
4.311	484.752542567	10.0
4.3213	485.089862559	15.0
4.3315	485.422924775	14.0
4.3418	485.758262771	17.0
4.352	486.089368006	12.0
4.3622	486.419503814	13.0
4.3725	486.751895404	13.0
4.3827	487.080091426	16.0
4.393	487.410529977	9.0
4.4032	487.736797612	10.0
4.4134	488.062109981	9.0
4.4237	488.389645176	11.0
4.4339	488.713046101	11.0
4.4442	489.038656792	16.0
4.4544	489.360157504	6.0
4.4646	489.680716908	9.0
4.4749	490.003466662	13.0
4.4851	490.322142549	12.0
4.4954	490.642995915	9.0
4.5056	490.959799353	9.0
4.5158	491.275675235	14.0
4.5261	491.593709464	11.0
4.5363	491.907729348	12.0
4.5466	492.223894898	7.0
4.5568	492.53606969	11.0
4.567	492.847330478	16.0
4.5773	493.160718079	20.0
4.5875	493.470149987	17.0
4.5978	493.781696211	15.0
4.608	494.089309983	17.0
4.6182	494.396023107	11.0
4.6285	494.70483197	12.0
4.6387	495.009742933	19.0
4.649	495.316737322	12.0
4.6592	495.619856714	15.0
4.6694	495.922088616	17.0
4.6797	496.226385638	9.0
4.6899	496.52684171	14.0
4.7002	496.829350768	15.0
4.7104	497.128041444	19.0
4.7206	497.425857598	13.0
4.7309	497.725708698	21.0
4.7411	498.021774968	11.0
4.7514	498.319864227	8.0
4.7616	498.614190894	12.0
4.7718	498.907655815	12.0
4.7821	499.203125951	15.0
4.7923	499.494866555	17.0
4.8026	499.788600592	12.0
4.8128	500.078627009	13.0
4.823	500.367804271	10.0
4.8333	500.658957451	11.0
4.8435	500.946435589	12.0
4.8538	501.235878034	9.0
4.864	501.521667031	11.0
4.8742	501.806619278	18.0
4.8845	502.093518575	4.0
4.8947	502.376796523	16.0
4.905	502.66201008	10.0
4.9152	502.943623567	17.0
4.9254	503.224412529	12.0
4.9357	503.507120094	12.0
4.9459	503.786259219	8.0
4.9562	504.067305673	13.0
4.9664	504.344804656	9.0
4.9766	504.621491161	11.0
4.9869	504.900068236	12.0
4.9971	505.175129009	8.0
5.0074	505.452069244	10.0
5.0176	505.725513837	13.0
5.0278	505.998157823	8.0
5.0381	506.272664758	9.0
5.0483	506.543706765	9.0
5.0586	506.816600774	9.0
5.0688	507.086050214	11.0
5.079	507.354710746	6.0
5.0893	507.625207006	12.0
5.0995	507.892288963	13.0
5.1098	508.161195864	9.0
5.12	508.426708523	14.0
5.1302	508.691443798	9.0
5.1405	508.957987983	9.0
5.1507	509.221167748	7.0
5.161	509.486145794	6.0
5.1712	509.747779189	9.0
5.1814	510.008646559	11.0
5.1917	510.271296409	11.0
5.2019	510.530630996	7.0
5.2122	510.791737589	6.0
5.2224	511.049548398	11.0
5.2326	511.306604375	15.0
5.2429	511.565416788	12.0
5.2531	511.820962376	12.0
5.2634	512.07825408	7.0
5.2736	512.332298154	10.0
5.2838	512.585598423	6.0
5.2941	512.840629466	5.0
5.3043	513.092441414	9.0
5.3146	513.345973967	6.0
5.3248	513.596306338	7.0
5.335	513.845905772	3.0
5.3453	514.097210694	7.0
5.3555	514.345343552	5.0
5.3658	514.595171876	8.0
5.376	514.841846775	5.0
5.3862	515.087799445	4.0
5.3965	515.335432685	7.0
5.4067	515.579940206	6.0
5.417	515.826118422	3.0
5.4272	516.069189286	7.0
5.4374	516.311548474	6.0
5.4477	516.555563676	6.0
5.4579	516.796498829	5.0
5.4682	517.039080267	5.0
5.4784	517.278599753	6.0
5.4886	517.51741796	3.0
5.4989	517.757867986	6.0
5.5091	517.995282965	4.0
5.5194	518.234320175	2.0
5.5296	518.470340169	2.0
5.5398	518.705669131	7.0
5.5501	518.942606071	7.0
5.5603	519.176552306	0.0
5.5706	519.412097071	0.0
5.5808	519.644668704	4.0
5.591	519.8765594	1.0
5.6013	520.110034581	2.0
5.6115	520.340562753	1.0
5.6218	520.572666099	3.0
5.632	520.801839752	1.0
5.6422	521.030342417	4.0
5.6525	521.260406417	3.0
5.6627	521.487566465	2.0
5.673	521.716278674	5.0
5.6832	521.942103993	0.0
5.6934	522.167268128	1.0
5.7037	522.393970786	1.0
5.7139	522.617811919	3.0
5.7242	522.843182536	0.0
5.7344	523.065708442	0.0
5.7446	523.287582825	2.0
5.7549	523.510973251	3.0
5.7651	523.731543962	1.0
5.7754	523.953621809	0.0
5.7856	524.172896508	1.0
5.7958	524.391529202	0.0
5.8061	524.611655791	0.0
5.8163	524.829003861	2.0
5.8266	525.047837047	0.0
5.8368	525.263908041	1.0
5.847	525.47934641	5.0
5.8573	525.696256847	5.0
5.8675	525.91042936	2.0
5.8778	526.126065292	3.0
5.888	526.338979388	1.0
5.8982	526.551270102	1.0
5.9085	526.765011376	1.0
5.9187	526.97605473	3.0
5.929	527.18854012	0.0
5.9392	527.398343442	1.0
5.9494	527.60753249	1.0
5.9597	527.818150905	0.0
5.9699	528.026110817	3.0
5.9802	528.235491697	1.0
5.9904	528.442229695	1.0
6.0006	528.648362393	0.0
6.0109	528.855903575	0.0
6.0211	529.060825096	2.0
6.0314	529.267146824	4.0
6.0416	529.470864283	1.0
6.0518	529.673985287	1.0
6.0621	529.878494196	1.0
6.0723	530.080421717	3.0
6.0826	530.283728989	0.0
6.0928	530.484470042	0.0
6.103	530.684623353	1.0
6.1133	530.886144291	5.0
6.1235	531.085121558	1.0
6.1338	531.285458416	1.0
6.144	531.483266548	1.0
6.1542	531.680495527	0.0
6.1645	531.87907215	0.0
6.1747	532.075142267	0.0
6.185	532.27255211	1.0
6.1952	532.467470173	0.0
6.2054	532.661817545	0.0
6.2157	532.857492871	1.0
6.2259	533.050698312	0.0
6.2362	533.245223906	0.0
6.2464	533.437294126	0.0
6.2566	533.628801991	0.0
6.2669	533.82161841	0.0
6.2771	534.01200103	0.0
6.2874	534.203684514	0.0
6.2976	534.392948498	0.0
6.3078	534.581658345	2.0
6.3181	534.771657627	1.0
6.3283	534.959258667	2.0
6.3386	535.148141567	2.0
6.3488	535.334640316	1.0
6.359	535.520593024	0.0
6.3693	535.707816328	2.0
6.3795	535.89267643	2.0
6.3898	536.078799662	2.0
6.4	536.262573578	1.0
6.4102	536.445809431	0.0
6.4205	536.630297315	0.0
6.4307	536.812456525	1.0
6.441	536.99586041	2.0
6.4512	537.176949304	0.0
6.4614	537.357507995	2.0
6.4717	537.539300426	2.0
6.4819	537.718798205	3.0
6.4922	537.899522474	2.0
6.5024	538.077965575	0.0
6.5126	538.255886219	1.0
6.5229	538.435022578	2.0
6.5331	538.611897811	1.0
6.5434	538.789981614	0.0
6.5536	538.965817578	2.0
6.5638	539.14113872	1.0
6.5741	539.317657812	0.0
6.5843	539.491948816	1.0
6.5946	539.667430732	0.0
6.6048	539.840697651	1.0
6.615	540.013457269	1.0
6.6253	540.187397336	0.0
6.6355	540.359141867	1.0
6.6458	540.53205991	1.0
6.656	540.702795319	0.0
6.6662	540.873030838	2.0
6.6765	541.04442956	0.0
6.6867	541.213664823	1.0
6.697	541.384056454	1.0
6.7072	541.552297338	0.0
6.7174	541.720045638	0.0
6.7277	541.888940144	0.0
6.7379	542.055702802	1.0
6.7482	542.223604931	1.0
6.7584	542.389387738	0.0
6.7686	542.554685157	0.0
6.7789	542.721112036	0.0
6.7891	542.885438214	0.0
6.7994	543.050887215	0.0
6.8096	543.214247858	2.0
6.8198	543.377130205	1.0
6.8301	543.541125509	1.0
6.8403	543.703050805	0.0
6.8506	543.866082519	0.0
6.8608	544.027056387	0.0
6.871	544.187558947	1.0
6.8813	544.349158204	0.0
6.8915	544.508717696	0.0
6.9018	544.669367441	0.0
6.912	544.827989406	2.0
6.9222	544.986146949	1.0
6.9325	545.145385165	0.0
6.9427	545.302613419	1.0
6.953	545.460915996	0.0
6.9632	545.617220421	0.0
6.9734	545.773067208	1.0
6.9837	545.92997888	0.0
6.9939	546.084909956	2.0
7.0042	546.240899659	1.0
7.0144	546.394920403	2.0
7.0246	546.548490196	0.0
7.0349	546.703109316	0.0
7.0451	546.855776776	1.0
7.0554	547.009487397	1.0
7.0656	547.161257827	0.0
7.0758	547.312583894	1.0
7.0861	547.464943956	0.0
7.0963	547.615380874	1.0
7.1066	547.766845711	0.0
7.1168	547.916398704	1.0
7.127	548.065513827	0.0
7.1373	548.215647838	0.0
7.1475	548.363886802	1.0
7.1578	548.513138668	0.0
7.168	548.660506621	1.0
7.1782	548.807443103	1.0
7.1885	548.955383586	0.0
7.1987	549.10145671	1.0
7.209	549.248527937	0.0
7.2192	549.393742776	0.0
7.2294	549.538532447	1.0
7.2397	549.684311451	1.0
7.2499	549.828250379	0.0
7.2602	549.973172826	1.0
7.2704	550.116266009	1.0
7.2806	550.258940236	1.0
7.2909	550.402589341	1.0
7.3011	550.544425254	1.0
7.3114	550.687230317	0.0
7.3216	550.828232842	1.0
7.3318	550.968822532	1.0
7.3421	551.110372857	0.0
7.3523	551.250136481	0.0
7.3626	551.390855096	0.0
7.3728	551.529797508	0.0
7.383	551.668333117	2.0
7.3933	551.807815326	1.0
7.4035	551.945536938	2.0
7.4138	552.084199589	1.0
7.424	552.221111988	1.0
7.4342	552.357623527	0.0
7.4445	552.495067836	1.0
7.4547	552.630777272	1.0
7.465	552.767413996	0.0
7.4752	552.902326041	2.0
7.4854	553.036843084	0.0
7.4957	553.172279267	0.0
7.5059	553.306005925	0.0
7.5162	553.440646323	0.0
7.5264	553.573587241	0.0
7.5366	553.706138926	0.0
7.5469	553.839596324	0.0
7.5571	553.971369173	1.0
7.5674	554.104042412	0.0
7.5776	554.235041001	1.0
7.5878	554.365656045	0.0
7.5981	554.497163568	1.0
7.6083	554.627011155	1.0
7.6186	554.757745976	2.0
7.6288	554.886830615	0.0
7.639	555.015537312	1.0
7.6493	555.145123449	0.0
7.6595	555.273073902	0.0
7.6698	555.401898627	0.0
7.68	555.529097279	0.0
7.6902	555.655923511	1.0
7.7005	555.783616334	1.0
7.7107	555.909697372	1.0
7.721	556.036639908	0.0
7.7312	556.161980128	0.0
7.7414	556.28695337	2.0
7.7517	556.412780542	8.0
7.7619	556.537019476	0.0
7.7722	556.662107323	0.0
7.7824	556.785616264	0.0
7.7926	556.908763589	0.0
7.8029	557.032752367	0.0
7.8131	557.155176113	2.0
7.8234	557.278436368	1.0
7.8336	557.400140786	1.0
7.8438	557.521488872	0.0
7.8541	557.643666116	0.0
7.8643	557.764301194	1.0
7.8746	557.885760559	0.0
7.8848	558.005686819	0.0
7.895	558.125261953	0.0
7.9053	558.24565413	1.0
7.9155	558.364526674	1.0
7.9258	558.484211461	0.0
7.936	558.602385543	0.0
7.9462	558.720213628	1.0
7.9565	558.83884682	3.0
7.9667	558.95598258	0.0
7.977	559.073918717	1.0
7.9872	559.19036622	0.0
7.9974	559.306472782	1.0
8.0077	559.423372688	2.0
8.0179	559.538797041	0.0
8.0282	559.655010075	1.0
8.0384	559.769756227	1.0
8.0486	559.884166418	1.0
8.0589	559.999358362	2.0
8.0691	560.11309631	0.0
8.0794	560.227611419	1.0
