TL-DOS Lehrstuhlversuch
detector=R1408303
job_number=2015-10-26-007
irradiation_dose [mSv]=10.0

[BEGIN DATA]
time [sec] 	 temperature [K] 	 photoncount 
0.0	112.780586901	0.0
0.0102	114.78636153	0.0
0.0205	116.802362413	1.0
0.0307	118.789487384	2.0
0.041	120.786743527	0.0
0.0512	122.755392245	0.0
0.0614	124.714912005	2.0
0.0717	126.684422193	0.0
0.0819	128.625722373	3.0
0.0922	130.576920089	1.0
0.1024	132.500170094	0.0
0.1126	134.414501662	1.0
0.1229	136.338593269	2.0
0.1331	138.235125415	0.0
0.1434	140.141326853	0.0
0.1536	142.020225077	0.0
0.1638	143.89041053	1.0
0.1741	145.770130948	0.0
0.1843	147.62292745	0.0
0.1946	149.485170261	1.0
0.2048	151.320739494	1.0
0.215	153.14779688	1.0
0.2253	154.984169346	2.0
0.2355	156.794238785	1.0
0.2458	158.613536693	1.0
0.256	160.406776137	0.0
0.2662	162.191700026	0.0
0.2765	163.985724181	0.0
0.2867	165.754051879	0.0
0.297	167.53139523	0.0
0.3072	169.283281047	1.0
0.3174	171.027043073	0.0
0.3277	172.779695505	0.0
0.3379	174.507244062	0.0
0.3482	176.243600363	0.0
0.3584	177.955086204	0.0
0.3686	179.658635593	0.0
0.3789	181.37087037	2.0
0.3891	183.058580187	0.0
0.3994	184.754894635	1.0
0.4096	186.426912157	0.0
0.4198	188.091176248	0.0
0.4301	189.763925435	0.0
0.4403	191.412715228	0.0
0.4506	193.069911222	1.0
0.4608	194.703370597	0.0
0.471	196.329255343	0.0
0.4813	197.963429511	0.0
0.4915	199.574196809	0.0
0.5018	201.193176454	0.0
0.512	202.788966866	0.0
0.5222	204.377357327	0.0
0.5325	205.973846048	0.0
0.5427	207.547467682	0.0
0.553	209.129112279	0.0
0.5632	210.688102407	0.0
0.5734	212.239863233	0.0
0.5837	213.799535566	0.0
0.5939	215.336868147	0.0
0.6042	216.882038674	0.0
0.6144	218.405077164	0.0
0.6246	219.921053065	0.0
0.6349	221.444758028	0.0
0.6451	222.946638412	0.0
0.6554	224.456175992	0.0
0.6656	225.944091919	0.0
0.6758	227.425108126	0.0
0.6861	228.913675156	0.0
0.6963	230.380920901	0.0
0.7066	231.855647261	0.0
0.7168	233.309250581	0.0
0.727	234.756113294	0.0
0.7373	236.210352702	0.0
0.7475	237.643762512	0.0
0.7578	239.084480428	0.0
0.768	240.504562419	0.0
0.7782	241.918059248	0.0
0.7885	243.338762658	0.0
0.7987	244.739116818	0.0
0.809	246.146610553	0.0
0.8192	247.533944246	0.0
0.8294	248.914844635	2.0
0.8397	250.302785417	1.0
0.8499	251.670846219	0.0
0.8602	253.045881951	1.0
0.8704	254.401222548	0.0
0.8806	255.750278201	1.0
0.8909	257.106211887	0.0
0.9011	258.442724043	0.0
0.9114	259.786050282	1.0
0.9216	261.110135572	0.0
0.9318	262.428080853	0.0
0.9421	263.752745555	0.0
0.9523	265.058436605	0.0
0.9626	266.370784598	0.0
0.9728	267.664335355	0.0
0.983	268.951887697	0.0
0.9933	270.246004504	1.0
1.0035	271.521585207	1.0
1.0138	272.803669339	0.0
1.024	274.067389716	3.0
1.0342	275.325250006	1.0
1.0445	276.589523378	0.0
1.0547	277.835688106	0.0
1.065	279.088206287	1.0
1.0752	280.322784196	0.0
1.0854	281.551637158	1.0
1.0957	282.786755312	1.0
1.1059	284.00418242	0.0
1.1162	285.227816467	0.0
1.1264	286.43392396	0.0
1.1366	287.634438527	3.0
1.1469	288.841073805	1.0
1.1571	290.030426009	3.0
1.1674	291.225842014	2.0
1.1776	292.404135642	2.0
1.1878	293.576965322	1.0
1.1981	294.755774564	2.0
1.2083	295.917699295	1.0
1.2186	297.085547989	1.0
1.2288	298.236669164	4.0
1.239	299.382452394	2.0
1.2493	300.534077293	2.0
1.2595	301.66920705	3.0
1.2698	302.810124161	5.0
1.28	303.934699502	6.0
1.2902	305.054059996	3.0
1.3005	306.179127445	3.0
1.3107	307.288080145	3.0
1.321	308.402686737	6.0
1.3312	309.501328414	5.0
1.3414	310.594875503	12.0
1.3517	311.69399794	5.0
1.3619	312.777377247	9.0
1.3722	313.866280063	9.0
1.3824	314.939586128	8.0
1.3926	316.007915091	11.0
1.4029	317.081690829	7.0
1.4131	318.140086489	11.0
1.4234	319.203878279	12.0
1.4336	320.252432994	8.0
1.4438	321.296125382	12.0
1.4541	322.345138938	14.0
1.4643	323.379127093	20.0
1.4746	324.41838694	19.0
1.4848	325.442761091	17.0
1.495	326.462385046	15.0
1.5053	327.487207457	14.0
1.5155	328.497350966	14.0
1.5258	329.512644596	14.0
1.536	330.513395808	16.0
1.5462	331.509506367	27.0
1.5565	332.510695502	31.0
1.5667	333.497544242	20.0
1.577	334.489424338	35.0
1.5872	335.467097375	36.0
1.5974	336.440236777	34.0
1.6077	337.418337639	39.0
1.6179	338.382428808	31.0
1.6282	339.351435305	46.0
1.6384	340.306562371	52.0
1.6486	341.25726035	52.0
1.6589	342.212805374	40.0
1.6691	343.15466378	45.0
1.6794	344.101324163	54.0
1.6896	345.034425187	63.0
1.6998	345.963199262	66.0
1.7101	346.896708605	77.0
1.7203	347.816846955	72.0
1.7306	348.741676545	82.0
1.7408	349.653259465	88.0
1.751	350.56061522	82.0
1.7613	351.472597043	91.0
1.7715	352.371516221	109.0
1.7818	353.275018453	112.0
1.792	354.165579496	125.0
1.8022	355.052010855	138.0
1.8125	355.942961602	129.0
1.8227	356.821150939	136.0
1.833	357.703817641	171.0
1.8432	358.573841588	189.0
1.8534	359.439831087	190.0
1.8637	360.310235752	184.0
1.8739	361.168173295	197.0
1.8842	362.030484952	216.0
1.8944	362.880445408	231.0
1.9046	363.726464452	251.0
1.9149	364.576796844	253.0
1.9251	365.414949618	253.0
1.9354	366.257375635	293.0
1.9456	367.08773528	304.0
1.9558	367.914244405	348.0
1.9661	368.744967409	324.0
1.9763	369.563791667	391.0
1.9866	370.386790624	397.0
1.9968	371.198001468	419.0
2.007	372.00545059	477.0
2.0173	372.817016415	477.0
2.0275	373.616957889	494.0
2.0378	374.42097779	496.0
2.048	375.213481422	513.0
2.0582	376.002310081	571.0
2.0685	376.795160508	583.0
2.0787	377.576654651	646.0
2.089	378.362133169	634.0
2.0992	379.136360993	690.0
2.1094	379.906998592	672.0
2.1197	380.681565214	756.0
2.1299	381.445037437	777.0
2.1402	382.212402152	811.0
2.1504	382.968775624	904.0
2.1606	383.721641664	928.0
2.1709	384.478346121	944.0
2.1811	385.224212026	952.0
2.1914	385.973880658	1023.0
2.2016	386.712811514	1025.0
2.2118	387.448315823	1108.0
2.2221	388.187570031	1133.0
2.2323	388.916235634	1172.0
2.2426	389.648616269	1192.0
2.2528	390.370506752	1183.0
2.263	391.089049705	1352.0
2.2733	391.811256083	1313.0
2.2835	392.523118037	1417.0
2.2938	393.238609352	1462.0
2.304	393.943852426	1429.0
2.3142	394.645825168	1471.0
2.3245	395.351376852	1527.0
2.3347	396.046822664	1624.0
2.345	396.745814141	1576.0
2.3552	397.434793709	1673.0
2.3654	398.120578363	1653.0
2.3757	398.809859425	1674.0
2.3859	399.489267665	1776.0
2.3962	400.172139804	1655.0
2.4064	400.845230918	1753.0
2.4166	401.515200793	1754.0
2.4269	402.188586448	1701.0
2.4371	402.852326956	1733.0
2.4474	403.519451482	1728.0
2.4576	404.177020543	1777.0
2.4678	404.831540343	1744.0
2.4781	405.489397152	1744.0
2.4883	406.137831239	1674.0
2.4986	406.789571306	1678.0
2.5088	407.431976265	1649.0
2.519	408.071402282	1627.0
2.5293	408.714088353	1717.0
2.5395	409.347568999	1657.0
2.5498	409.984279386	1621.0
2.56	410.61186994	1546.0
2.5702	411.236550249	1520.0
2.5805	411.864415433	1483.0
2.5907	412.483287476	1424.0
2.601	413.10531478	1427.0
2.6112	413.718432561	1336.0
2.6214	414.328707211	1269.0
2.6317	414.94209329	1312.0
2.6419	415.546693617	1314.0
2.6522	416.154376442	1185.0
2.6624	416.753355206	1156.0
2.6726	417.349556404	1199.0
2.6829	417.948797278	1154.0
2.6931	418.539455007	1074.0
2.7034	419.13312415	1057.0
2.7136	419.718289954	1047.0
2.7238	420.300742245	1013.0
2.7341	420.886164114	990.0
2.7443	421.463200774	1018.0
2.7546	422.043179401	1053.0
2.7648	422.614850784	1024.0
2.775	423.18387123	1041.0
2.7853	423.755792773	1020.0
2.7955	424.319522476	1081.0
2.8058	424.886126303	1055.0
2.816	425.444614458	1106.0
2.8262	426.000512808	1108.0
2.8365	426.559245354	1121.0
2.8467	427.109974971	1155.0
2.857	427.663512431	1122.0
2.8672	428.209121374	1160.0
2.8774	428.752200236	1143.0
2.8877	429.298047934	1251.0
2.8979	429.836077257	1205.0
2.9082	430.376849673	1277.0
2.9184	430.90987641	1290.0
2.9286	431.44043141	1339.0
2.9389	431.973691396	1322.0
2.9491	432.499313306	1349.0
2.9594	433.02761505	1420.0
2.9696	433.548349736	1448.0
2.9798	434.066669688	1445.0
2.9901	434.587632245	1460.0
3.0003	435.101132866	1596.0
3.0106	435.617251522	1623.0
3.0208	436.125977624	1600.0
3.031	436.632344677	1673.0
3.0413	437.141293394	1617.0
3.0515	437.642952254	1685.0
3.0618	438.147168775	1745.0
3.072	438.64416322	1779.0
3.0822	439.138853018	1766.0
3.0925	439.636064945	1742.0
3.1027	440.126155125	1774.0
3.113	440.618743984	1918.0
3.1232	441.104277315	1865.0
3.1334	441.587559144	1862.0
3.1437	442.073304941	1850.0
3.1539	442.552093225	1946.0
3.1642	443.033322566	1904.0
3.1744	443.507659085	1940.0
3.1846	443.979796025	1950.0
3.1949	444.454340111	1999.0
3.2051	444.92208713	1973.0
3.2154	445.392218913	2028.0
3.2256	445.855616828	1983.0
3.2358	446.316865888	1915.0
3.2461	446.780466584	2086.0
3.2563	447.237426959	1988.0
3.2666	447.696717103	2022.0
3.2768	448.149428668	1957.0
3.287	448.600040933	1987.0
3.2973	449.052950602	2042.0
3.3075	449.499373082	1972.0
3.3178	449.948071605	2029.0
3.328	450.390343256	1995.0
3.3382	450.830564019	1844.0
3.3485	451.273029205	1961.0
3.3587	451.709156803	1905.0
3.369	452.147507956	1972.0
3.3792	452.579580447	1922.0
3.3894	453.009649345	1916.0
3.3997	453.441910908	1883.0
3.4099	453.867981032	1901.0
3.4202	454.296223435	1836.0
3.4304	454.718331967	1862.0
3.4406	455.13848311	1731.0
3.4509	455.560776354	1856.0
3.4611	455.977020938	1761.0
3.4714	456.395387707	1687.0
3.4816	456.807762057	1670.0
3.4918	457.218224157	1637.0
3.5021	457.63077896	1732.0
3.5123	458.03742459	1676.0
3.5226	458.446143466	1670.0
3.5328	458.849008112	1632.0
3.543	459.250004607	1658.0
3.5533	459.653045545	1687.0
3.5635	460.050313581	1583.0
3.5738	460.449607052	1635.0
3.584	460.843181297	1633.0
3.5942	461.234930472	1572.0
3.6045	461.628676943	1565.0
3.6147	462.01678364	1593.0
3.625	462.406869064	1566.0
3.6352	462.791367152	1569.0
3.6454	463.174082257	1646.0
3.6557	463.5587486	1518.0
3.6659	463.937905227	1571.0
3.6762	464.318994949	1504.0
3.6864	464.694626184	1581.0
3.6966	465.068515553	1525.0
3.7069	465.444311163	1552.0
3.7171	465.814724116	1586.0
3.7274	466.187025584	1570.0
3.7376	466.553994444	1611.0
3.7478	466.919261606	1558.0
3.7581	467.286391049	1591.0
3.7683	467.648261964	1518.0
3.7786	468.011977844	1540.0
3.7888	468.37048409	1506.0
3.799	468.727327881	1538.0
3.8093	469.085991007	1579.0
3.8195	469.439516871	1593.0
3.8298	469.794845153	1605.0
3.84	470.14508394	1567.0
3.8502	470.493698609	1518.0
3.8605	470.844090658	1567.0
3.8707	471.189463915	1595.0
3.881	471.536598025	1527.0
3.8912	471.878760007	1562.0
3.9014	472.219335326	1530.0
3.9117	472.561647037	1526.0
3.9219	472.899055692	1589.0
3.9322	473.238184594	1522.0
3.9424	473.57245603	1527.0
3.9526	473.905177393	1532.0
3.9629	474.239595104	1503.0
3.9731	474.569222829	1505.0
3.9834	474.90053113	1525.0
3.9936	475.227093982	1492.0
4.0038	475.552142507	1529.0
4.0141	475.878848261	1468.0
4.0243	476.200874491	1595.0
4.0346	476.524542541	1472.0
4.0448	476.843574576	1503.0
4.055	477.161127205	1512.0
4.0653	477.480298847	1475.0
4.0755	477.794898877	1489.0
4.0858	478.111102867	1506.0
4.096	478.422777752	1450.0
4.1062	478.733007347	1454.0
4.1165	479.044818619	1389.0
4.1267	479.352163706	1423.0
4.137	479.661075762	1456.0
4.1472	479.965563159	1502.0
4.1574	480.268638596	1485.0
4.1677	480.573259235	1513.0
4.1779	480.873516682	1432.0
4.1882	481.175304964	1463.0
4.1984	481.472770623	1395.0
4.2086	481.768856883	1330.0
4.2189	482.06645271	1425.0
4.2291	482.359785965	1284.0
4.2394	482.654614753	1354.0
4.2496	482.9452206	1479.0
4.2598	483.234478859	1360.0
4.2701	483.525211874	1421.0
4.2803	483.811780615	1355.0
4.2906	484.099810399	1355.0
4.3008	484.383714629	1343.0
4.311	484.666302346	1356.0
4.3213	484.95033081	1309.0
4.3315	485.230291032	1368.0
4.3418	485.511678605	1333.0
4.352	485.789035761	1305.0
4.3622	486.065106766	1265.0
4.3725	486.342585292	1290.0
4.3827	486.616089393	1325.0
4.393	486.890987929	1250.0
4.4032	487.161948993	1255.0
4.4134	487.431653565	1273.0
4.4237	487.702733201	1232.0
4.4339	487.969930065	1251.0
4.4442	488.238489206	1258.0
4.4544	488.503201678	1247.0
4.4646	488.766686634	1251.0
4.4749	489.031514942	1221.0
4.4851	489.292550019	1236.0
4.4954	489.554915958	1212.0
4.5056	489.813523936	1278.0
4.5158	490.070932704	1186.0
4.5261	490.329653846	1175.0
4.5363	490.584669232	1265.0
4.5466	490.84098479	1204.0
4.5568	491.093629047	1205.0
4.567	491.34510175	1228.0
4.5773	491.597856563	1296.0
4.5875	491.846991077	1279.0
4.5978	492.09739578	1227.0
4.608	492.344213846	1180.0
4.6182	492.589887374	1245.0
4.6285	492.836813446	1167.0
4.6387	493.080202706	1235.0
4.649	493.324832864	1156.0
4.6592	493.565959095	1266.0
4.6694	493.805967183	1231.0
4.6797	494.04719893	1236.0
4.6899	494.284975427	1224.0
4.7002	494.523964205	1181.0
4.7104	494.75952986	1245.0
4.7206	494.994003157	1264.0
4.7309	495.229671895	1239.0
4.7411	495.461965063	1233.0
4.7514	495.695442557	1142.0
4.7616	495.925575868	1241.0
4.7718	496.154642011	1236.0
4.7821	496.384876027	1192.0
4.7923	496.611812318	1223.0
4.8026	496.839905622	1158.0
4.8128	497.064731863	1197.0
4.823	497.288515546	1204.0
4.8333	497.51344017	1218.0
4.8435	497.735143116	1117.0
4.8538	497.957976395	1184.0
4.864	498.177617951	1218.0
4.8742	498.396240993	1265.0
4.8845	498.615978663	1217.0
4.8947	498.832568951	1254.0
4.905	499.050263505	1223.0
4.9152	499.26483994	1250.0
4.9254	499.478421348	1217.0
4.9357	499.693091681	1250.0
4.9459	499.904687213	1191.0
4.9562	500.117361545	1240.0
4.9664	500.326989665	1218.0
4.9766	500.535645704	1192.0
4.9869	500.745365557	1175.0
4.9971	500.952081516	1193.0
5.0074	501.159851397	1209.0
5.0176	501.364645314	1198.0
5.0278	501.568489568	1088.0
5.0381	501.773373102	1169.0
5.0483	501.975322015	1146.0
5.0586	502.178300545	1146.0
5.0688	502.378371741	1187.0
5.079	502.577515173	1114.0
5.0893	502.777673918	1087.0
5.0995	502.974965718	1134.0
5.1098	503.173263391	1105.0
5.12	503.368720774	1114.0
5.1302	503.563271789	1088.0
5.1405	503.758814704	1074.0
5.1507	503.951556786	1021.0
5.161	504.145281547	1027.0
5.1712	504.336231517	1057.0
5.1814	504.526296019	1010.0
5.1917	504.717329548	1042.0
5.2019	504.905626834	1070.0
5.2122	505.094884137	999.0
5.2224	505.281430638	949.0
5.2326	505.467112092	965.0
5.2429	505.653740225	979.0
5.2531	505.837695216	889.0
5.2634	506.022588084	888.0
5.2736	506.204832664	905.0
5.2838	506.386232145	879.0
5.2941	506.568556475	873.0
5.3043	506.748269307	862.0
5.3146	506.928898388	839.0
5.3248	507.106940254	852.0
5.335	507.284156509	802.0
5.3453	507.462276284	794.0
5.3555	507.637844786	753.0
5.3658	507.814308406	762.0
5.376	507.988244475	786.0
5.3862	508.161373972	727.0
5.3965	508.335386154	737.0
5.4067	508.506905897	735.0
5.417	508.679300116	668.0
5.4272	508.849225071	716.0
5.4374	509.018362055	677.0
5.4477	509.188361368	668.0
5.4579	509.355925719	660.0
5.4682	509.524344382	638.0
5.4784	509.690350723	591.0
5.4886	509.855587264	559.0
5.4989	510.021666248	560.0
5.5091	510.185366423	556.0
5.5194	510.349901208	587.0
5.5296	510.512079301	561.0
5.5398	510.673505347	509.0
5.5501	510.835754409	530.0
5.5603	510.995679518	544.0
5.5706	511.156419991	475.0
5.5808	511.31485812	454.0
5.591	511.472561544	434.0
5.6013	511.631069004	455.0
5.6115	511.787306104	436.0
5.6218	511.944339765	409.0
5.632	512.099124176	399.0
5.6422	512.253190825	373.0
5.6525	512.408042968	373.0
5.6627	512.560677108	330.0
5.673	512.714089439	361.0
5.6832	512.865304389	337.0
5.6934	513.01581813	312.0
5.7037	513.167099252	304.0
5.7139	513.316213518	289.0
5.7242	513.46608803	290.0
5.7344	513.613815836	306.0
5.7446	513.760858602	273.0
5.7549	513.908651052	268.0
5.7651	514.054326617	256.0
5.7754	514.200744895	303.0
5.7856	514.345065971	251.0
5.7958	514.488717806	256.0
5.8061	514.633102036	218.0
5.8163	514.775418199	222.0
5.8266	514.918459947	196.0
5.8368	515.059452857	200.0
5.847	515.199791958	204.0
5.8573	515.340846565	178.0
5.8675	515.479880796	201.0
5.8778	515.61962388	173.0
5.888	515.757365373	161.0
5.8982	515.894468135	174.0
5.9085	516.032269903	163.0
5.9187	516.168097886	153.0
5.929	516.304618376	147.0
5.9392	516.439183433	148.0
5.9494	516.573124489	138.0
5.9597	516.707748431	117.0
5.9699	516.840444105	138.0
5.9802	516.973816316	107.0
5.9904	517.105278188	103.0
6.0006	517.23613045	122.0
6.0109	517.367649849	98.0
6.0211	517.497285448	101.0
6.0314	517.627581983	88.0
6.0416	517.756012232	111.0
6.0518	517.883846929	101.0
6.0621	518.012333379	112.0
6.0723	518.138979471	85.0
6.0826	518.266271257	81.0
6.0928	518.391739796	86.0
6.103	518.516626516	88.0
6.1133	518.642149959	64.0
6.1235	518.765875484	73.0
6.1338	518.890231813	65.0
6.144	519.012806941	59.0
6.1542	519.134813667	52.0
6.1645	519.257442433	55.0
6.1747	519.378314742	62.0
6.185	519.499803308	44.0
6.1952	519.619551749	60.0
6.2054	519.738744896	53.0
6.2157	519.858545738	48.0
6.2259	519.97663063	43.0
6.2362	520.095317566	38.0
6.2464	520.212304506	45.0
6.2566	520.328748958	40.0
6.2669	520.445787091	48.0
6.2771	520.561148844	38.0
6.2874	520.677098758	38.0
6.2976	520.79138788	34.0
6.3078	520.905147024	38.0
6.3181	521.019486158	30.0
6.3283	521.132187571	32.0
6.3386	521.245463582	43.0
6.3488	521.357117099	37.0
6.359	521.46825286	21.0
6.3693	521.579955236	25.0
6.3795	521.690057659	28.0
6.3898	521.800721429	26.0
6.4	521.909800121	28.0
6.4102	522.018372997	26.0
6.4205	522.127499421	26.0
6.4307	522.235062789	28.0
6.441	522.343174558	31.0
6.4512	522.449737802	11.0
6.4614	522.555806895	27.0
6.4717	522.662416772	29.0
6.4819	522.767499636	19.0
6.4922	522.873118256	14.0
6.5024	522.977224062	19.0
6.5126	523.080847111	17.0
6.5229	523.184998473	21.0
6.5331	523.287658037	17.0
6.5434	523.390841002	16.0
6.5536	523.492546039	19.0
6.5638	523.593779453	14.0
6.5741	523.695528996	22.0
6.5843	523.795821143	11.0
6.5946	523.896624621	19.0
6.6048	523.995984253	13.0
6.615	524.094883139	13.0
6.6253	524.19428625	18.0
6.6355	524.292265576	12.0
6.6458	524.390744439	12.0
6.656	524.487812754	22.0
6.6662	524.584430947	15.0
6.6765	524.681541738	15.0
6.6867	524.777261577	19.0
6.697	524.873469434	13.0
6.7072	524.968299271	21.0
6.7174	525.062689366	15.0
6.7277	525.157560701	6.0
6.7379	525.251073158	21.0
6.7482	525.34506238	15.0
6.7584	525.437705361	10.0
6.7686	525.52991874	12.0
6.7789	525.62260226	8.0
6.7891	525.713958241	21.0
6.7994	525.805779992	16.0
6.8096	525.896286546	11.0
6.8198	525.986373407	10.0
6.8301	526.076919566	17.0
6.8403	526.166168801	13.0
6.8506	526.255873064	6.0
6.8608	526.34429246	7.0
6.871	526.432301841	11.0
6.8813	526.520759929	11.0
6.8915	526.607951	9.0
6.9018	526.695586606	11.0
6.912	526.781966976	9.0
6.9222	526.867946785	7.0
6.9325	526.954364955	12.0
6.9427	527.039545326	12.0
6.953	527.12515998	7.0
6.9632	527.209548346	3.0
6.9734	527.293545387	15.0
6.9837	527.37797068	12.0
6.9939	527.461186719	15.0
7.0042	527.544827027	9.0
7.0144	527.627269325	6.0
7.0246	527.709329324	8.0
7.0349	527.791807697	16.0
7.0451	527.873104704	8.0
7.0554	527.954816195	9.0
7.0656	528.035357303	9.0
7.0758	528.115524928	5.0
7.0861	528.196101281	8.0
7.0963	528.275523509	7.0
7.1066	528.355350664	7.0
7.1168	528.434034426	6.0
7.127	528.512353317	4.0
7.1373	528.59107151	7.0
7.1475	528.668662194	10.0
7.1578	528.746648467	5.0
7.168	528.823517714	6.0
7.1782	528.900030506	4.0
7.1885	528.97693339	7.0
7.1987	529.052734767	11.0
7.209	529.12892261	7.0
7.2192	529.204019187	9.0
7.2294	529.278767529	9.0
7.2397	529.353896967	4.0
7.2499	529.4279503	8.0
7.2602	529.502381186	5.0
7.2704	529.575745972	6.0
7.2806	529.648770553	8.0
7.2909	529.722167443	5.0
7.3011	529.794513043	9.0
7.3114	529.86722749	4.0
7.3216	529.938900422	5.0
7.3318	530.010240994	7.0
7.3421	530.081945289	5.0
7.3523	530.152622538	11.0
7.3626	530.223660128	4.0
7.3728	530.293680221	6.0
7.383	530.363375619	6.0
7.3933	530.433426352	6.0
7.4035	530.502473723	9.0
7.4138	530.571873126	7.0
7.424	530.640278496	6.0
7.4342	530.708366658	4.0
7.4445	530.776801962	6.0
7.4547	530.844257042	8.0
7.465	530.912056036	6.0
7.4752	530.97888392	9.0
7.4854	531.045401911	4.0
7.4957	531.112259039	4.0
7.5059	531.178158547	5.0
7.5162	531.244394038	4.0
7.5264	531.309680814	4.0
7.5366	531.374664845	8.0
7.5469	531.43998019	7.0
7.5571	531.50436	2.0
7.5674	531.569068044	8.0
7.5776	531.632849251	10.0
7.5878	531.696334695	7.0
7.5981	531.760143812	6.0
7.6083	531.823038969	10.0
7.6186	531.886254791	5.0
7.6288	531.948565149	9.0
7.639	532.010586564	9.0
7.6493	532.07292419	1.0
7.6595	532.13436893	5.0
7.6698	532.196126942	3.0
