TL-DOS Lehrstuhlversuch
detector=R1408301
job_number=2015-10-23-004
irradiation_dose [mSv]=4.0

[BEGIN DATA]
time [sec] 	 temperature [K] 	 photoncount 
0.0	173.936854292	0.0
0.0102	175.231975787	0.0
0.0205	176.535394256	1.0
0.0307	177.82181524	4.0
0.041	179.11647746	1.0
0.0512	180.394256382	1.0
0.0614	181.667757007	0.0
0.0717	182.949416095	1.0
0.0819	184.214361455	2.0
0.0922	185.487410472	0.0
0.1024	186.743858043	1.0
0.1126	187.996098737	1.0
0.1229	189.256361697	5.0
0.1331	190.500189951	2.0
0.1434	191.751986577	3.0
0.1536	192.987458903	1.0
0.1638	194.218794583	1.0
0.1741	195.458018604	0.0
0.1843	196.681082281	2.0
0.1946	197.911981305	1.0
0.2048	199.126828549	0.0
0.215	200.337608205	0.0
0.2253	201.556144513	2.0
0.2355	202.758790259	0.0
0.2458	203.969140548	0.0
0.256	205.163707027	1.0
0.2662	206.354273823	0.0
0.2765	207.55246778	2.0
0.2867	208.735036453	0.0
0.297	209.925181051	2.0
0.3072	211.099805333	0.0
0.3174	212.270496703	0.0
0.3277	213.448687907	0.0
0.3379	214.611514677	0.0
0.3482	215.781790897	0.0
0.3584	216.9368059	0.0
0.3686	218.087953647	0.0
0.3789	219.246476024	0.0
0.3891	220.389890463	1.0
0.3994	221.540629991	2.0
0.4096	222.676363074	0.0
0.4198	223.80829346	1.0
0.4301	224.947475365	1.0
0.4403	226.071801544	0.0
0.4506	227.203330526	1.0
0.4608	228.320103583	2.0
0.471	229.433137425	0.0
0.4813	230.553301729	0.0
0.4915	231.658858309	0.0
0.5018	232.771497449	0.0
0.512	233.869626999	1.0
0.5222	234.964079758	0.0
0.5325	236.065543941	0.0
0.5427	237.152644265	0.0
0.553	238.24670891	0.0
0.5632	239.32650619	0.0
0.5734	240.40268806	0.0
0.5837	241.485764305	0.0
0.5939	242.554716482	1.0
0.6042	243.630516717	0.0
0.6144	244.692287768	0.0
0.6246	245.750503765	0.0
0.6349	246.815499041	0.0
0.6451	247.866606037	0.0
0.6554	248.92444677	0.0
0.6656	249.968492523	0.0
0.6758	251.009042571	0.0
0.6861	252.056258724	0.0
0.6963	253.089818449	0.0
0.7066	254.129999497	0.0
0.7168	255.15661586	0.0
0.727	256.179794874	0.0
0.7373	257.20952871	0.0
0.7475	258.225834099	0.0
0.7578	259.248650275	0.0
0.768	260.258128216	0.0
0.7782	261.264226191	0.0
0.7885	262.276769561	0.0
0.7987	263.27610866	0.0
0.809	264.281849854	0.0
0.8192	265.274475482	0.0
0.8294	266.263777571	0.0
0.8397	267.259417454	0.0
0.8499	268.2420735	0.0
0.8602	269.231024763	0.0
0.8704	270.207079413	0.0
0.8806	271.179866007	0.0
0.8909	272.158884592	1.0
0.9011	273.125136093	0.0
0.9114	274.097577718	0.0
0.9216	275.057338027	0.0
0.9318	276.013884838	0.0
0.9421	276.976559601	1.0
0.9523	277.926680416	0.0
0.9626	278.882888016	0.0
0.9728	279.826626004	0.0
0.983	280.767204139	0.0
0.9933	281.713807927	0.0
1.0035	282.648067342	0.0
1.0138	283.58831193	0.0
1.024	284.516295073	0.0
1.0342	285.441171116	1.0
1.0445	286.371972218	0.0
1.0547	287.290635025	0.0
1.065	288.215183089	0.0
1.0752	289.127674402	0.0
1.0854	290.037110483	0.0
1.0957	290.952372711	2.0
1.1059	291.855699282	1.0
1.1162	292.76481286	0.0
1.1264	293.662070964	0.0
1.1366	294.556324841	0.0
1.1469	295.456307602	0.0
1.1571	296.344553961	0.0
1.1674	297.238490718	0.0
1.1776	298.120769917	1.0
1.1878	299.000095042	1.0
1.1981	299.885053413	0.0
1.2083	300.758471311	2.0
1.2186	301.63748461	2.0
1.2288	302.505034964	1.0
1.239	303.36968056	1.0
1.2493	304.239865359	0.0
1.2595	305.098702342	1.0
1.2698	305.963041318	1.0
1.28	306.816108711	0.0
1.2902	307.666319838	1.0
1.3005	308.521977696	1.0
1.3107	309.366477181	1.0
1.321	310.216386806	1.0
1.3312	311.055213019	0.0
1.3414	311.891230647	2.0
1.3517	312.73260408	1.0
1.3619	313.563005417	0.0
1.3722	314.398726577	1.0
1.3824	315.223549352	2.0
1.3926	316.04561043	2.0
1.4029	316.872937902	1.0
1.4131	317.689476447	2.0
1.4234	318.511246006	0.0
1.4336	319.322299118	2.0
1.4438	320.130636637	1.0
1.4541	320.944152632	1.0
1.4643	321.747059812	2.0
1.4746	322.555110679	2.0
1.4848	323.352624	4.0
1.495	324.147467063	3.0
1.5053	324.947402151	2.0
1.5155	325.736905529	4.0
1.5258	326.531466725	2.0
1.536	327.315666289	4.0
1.5462	328.097240173	5.0
1.5565	328.883821076	1.0
1.5667	329.660144416	2.0
1.577	330.441441139	8.0
1.5872	331.212549208	2.0
1.5974	331.981075429	6.0
1.6077	332.754525082	1.0
1.6179	333.517888413	6.0
1.6282	334.286142101	7.0
1.6384	335.044377225	6.0
1.6486	335.800073603	5.0
1.6589	336.560611221	6.0
1.6691	337.311230898	8.0
1.6794	338.066659292	10.0
1.6896	338.812236373	13.0
1.6998	339.555317091	4.0
1.7101	340.303158228	11.0
1.7203	341.041246995	8.0
1.7306	341.784064202	10.0
1.7408	342.517194555	9.0
1.751	343.247870219	10.0
1.7613	343.983226831	5.0
1.7715	344.70899388	14.0
1.7818	345.439410432	12.0
1.792	346.160301844	14.0
1.8022	346.878779545	9.0
1.8125	347.60186005	9.0
1.8227	348.315511081	16.0
1.833	349.033733996	26.0
1.8432	349.742590784	16.0
1.8534	350.449074156	17.0
1.8637	351.160083492	21.0
1.8739	351.861820772	20.0
1.8842	352.568053611	18.0
1.8944	353.265076682	23.0
1.9046	353.959765959	35.0
1.9149	354.658905645	33.0
1.9251	355.348928061	27.0
1.9354	356.043370988	37.0
1.9456	356.728757896	30.0
1.9558	357.41184997	27.0
1.9661	358.099318157	41.0
1.9763	358.777821279	33.0
1.9866	359.460671116	35.0
1.9968	360.134616115	38.0
2.007	360.806304591	37.0
2.0173	361.482296125	41.0
2.0275	362.149472257	45.0
2.0378	362.82092254	44.0
2.048	363.483616643	49.0
2.0582	364.144091893	61.0
2.0685	364.808798365	69.0
2.0787	365.464836602	62.0
2.089	366.125077635	84.0
2.0992	366.776708665	77.0
2.1094	367.426157885	73.0
2.1197	368.079767689	80.0
2.1299	368.724853967	89.0
2.1402	369.374072879	95.0
2.1504	370.014825524	104.0
2.1606	370.653432782	120.0
2.1709	371.296131168	106.0
2.1811	371.930448319	117.0
2.1914	372.568829115	107.0
2.2016	373.19888498	126.0
2.2118	373.826831273	115.0
2.2221	374.458800396	121.0
2.2323	375.082528202	162.0
2.2426	375.710251813	157.0
2.2528	376.329789471	156.0
2.263	376.947252775	151.0
2.2733	377.568671751	174.0
2.2835	378.181986991	180.0
2.2938	378.799231329	188.0
2.304	379.408426372	183.0
2.3142	380.015581689	197.0
2.3245	380.626626643	207.0
2.3347	381.229703145	264.0
2.345	381.836643154	246.0
2.3552	382.435668242	229.0
2.3654	383.032687656	256.0
2.3757	383.633531772	262.0
2.3859	384.226540463	279.0
2.3962	384.823348162	298.0
2.4064	385.412373073	309.0
2.4166	385.999425793	303.0
2.4269	386.590239366	330.0
2.4371	387.173348319	356.0
2.4474	387.760192858	323.0
2.4576	388.339384537	382.0
2.4678	388.916636948	392.0
2.4781	389.497587428	395.0
2.4883	390.070961909	413.0
2.4986	390.648009615	413.0
2.5088	391.217532217	418.0
2.519	391.785147927	424.0
2.5293	392.356399969	439.0
2.5395	392.920202487	486.0
2.5498	393.487616908	470.0
2.56	394.047631851	493.0
2.5702	394.605771735	481.0
2.5805	395.167487246	504.0
2.5907	395.721877595	501.0
2.601	396.279819552	548.0
2.6112	396.830485557	512.0
2.6214	397.379307805	553.0
2.6317	397.931645988	577.0
2.6419	398.476781297	593.0
2.6522	399.025408923	560.0
2.6624	399.566882061	604.0
2.6726	400.106542223	632.0
2.6829	400.649659625	606.0
2.6931	401.185694398	613.0
2.7034	401.725163186	630.0
2.7136	402.257596926	634.0
2.7238	402.788247954	624.0
2.7341	403.322298507	642.0
2.7443	403.849384669	614.0
2.7546	404.379847519	603.0
2.7648	404.903392763	623.0
2.775	405.425185057	619.0
2.7853	405.950320124	639.0
2.7955	406.468607064	613.0
2.8058	406.990214321	623.0
2.816	407.505019456	564.0
2.8262	408.018100904	588.0
2.8365	408.534469321	575.0
2.8467	409.044103934	564.0
2.857	409.557003434	605.0
2.8672	410.063214367	598.0
2.8774	410.567730389	535.0
2.8877	411.075478507	554.0
2.8979	411.576605235	517.0
2.9082	412.080942347	534.0
2.9184	412.578702551	487.0
2.9286	413.074796139	450.0
2.9389	413.574067865	478.0
2.9491	414.066828741	417.0
2.9594	414.562746405	421.0
2.9696	415.052196957	461.0
2.9798	415.540008716	441.0
2.9901	416.030945557	421.0
3.0003	416.51548024	358.0
3.0106	417.003119011	430.0
3.0208	417.484398633	389.0
3.031	417.96406682	350.0
3.0413	418.446807919	352.0
3.0515	418.923253738	340.0
3.0618	419.402751826	347.0
3.072	419.875996924	341.0
3.0822	420.347657489	352.0
3.0925	420.822339666	338.0
3.1027	421.290831657	331.0
3.113	421.762324962	345.0
3.1232	422.227669666	322.0
3.1334	422.691456288	311.0
3.1437	423.15821408	363.0
3.1539	423.618885026	312.0
3.1642	424.08250718	344.0
3.1744	424.540083379	328.0
3.1846	424.996127508	349.0
3.1949	425.455093205	334.0
3.2051	425.908073669	349.0
3.2154	426.363956076	354.0
3.2256	426.813893458	412.0
3.2358	427.262324346	386.0
3.2461	427.71362803	406.0
3.2563	428.1590464	362.0
3.2666	428.607318266	422.0
3.2768	429.049744354	370.0
3.287	429.490689098	379.0
3.2973	429.93445868	387.0
3.3075	430.372441196	444.0
3.3178	430.813229573	482.0
3.328	431.248269762	430.0
3.3382	431.681853336	437.0
3.3485	432.11821459	489.0
3.3587	432.548885388	476.0
3.369	432.982315206	430.0
3.3792	433.410092796	455.0
3.3894	433.836438089	507.0
3.3997	434.26551469	505.0
3.4099	434.688995833	516.0
3.4202	435.115189935	523.0
3.4304	435.535826169	495.0
3.4406	435.955054017	555.0
3.4509	436.376967576	549.0
3.4611	436.793379088	555.0
3.4714	437.212458269	597.0
3.4816	437.626072366	583.0
3.4918	438.038301587	573.0
3.5021	438.453171684	593.0
3.5123	438.862631587	562.0
3.5226	439.274714624	606.0
3.5328	439.681423811	617.0
3.543	440.086771242	604.0
3.5533	440.494715462	596.0
3.5635	440.897339805	632.0
3.5738	441.302543492	606.0
3.584	441.702463041	617.0
3.5942	442.101043567	669.0
3.6045	442.502177531	623.0
3.6147	442.898080428	628.0
3.625	443.29651961	660.0
3.6352	443.689762867	650.0
3.6454	444.081689455	671.0
3.6557	444.476126854	656.0
3.6659	444.865420514	673.0
3.6762	445.257208117	625.0
3.6864	445.643886538	628.0
3.6966	446.029270269	687.0
3.7069	446.417122896	652.0
3.7171	446.799917654	630.0
3.7274	447.185164721	663.0
3.7376	447.565387898	695.0
3.7478	447.944338001	651.0
3.7581	448.325715782	685.0
3.7683	448.702120131	698.0
3.7786	449.080935851	602.0
3.7888	449.454811549	660.0
3.799	449.827435426	678.0
3.8093	450.202446453	623.0
3.8195	450.572567076	665.0
3.8298	450.945058813	596.0
3.84	451.312692998	611.0
3.8502	451.679096259	594.0
3.8605	452.04784682	591.0
3.8707	452.411788617	611.0
3.881	452.778061945	578.0
3.8912	453.139558813	575.0
3.9014	453.499845306	560.0
3.9117	453.862439913	564.0
3.9219	454.220306034	602.0
3.9322	454.580464763	575.0
3.9424	454.935926772	564.0
3.9526	455.290198611	524.0
3.9629	455.646740032	564.0
3.9731	455.998631905	532.0
3.9834	456.352778113	552.0
3.9936	456.702306008	542.0
4.0038	457.050663603	551.0
4.0141	457.401252891	565.0
4.0243	457.74727025	524.0
4.0346	458.095504311	515.0
4.0448	458.439197156	548.0
4.055	458.781739239	514.0
4.0653	459.126475759	475.0
4.0755	459.466716675	566.0
4.0858	459.809137286	490.0
4.096	460.147092494	508.0
4.1062	460.483916149	521.0
4.1165	460.822897608	512.0
4.1267	461.157458513	466.0
4.137	461.494162724	487.0
4.1472	461.826476078	487.0
4.1574	462.157676771	520.0
4.1677	462.490999244	519.0
4.1779	462.819974959	508.0
4.1882	463.151058202	478.0
4.1984	463.477823888	526.0
4.2086	463.803495487	454.0
4.2189	464.131253446	520.0
4.2291	464.454737212	502.0
4.2394	464.780293322	468.0
4.2496	465.101603954	502.0
4.2598	465.421838763	461.0
4.2701	465.744125102	497.0
4.2803	466.062208603	494.0
4.2906	466.382329851	495.0
4.3008	466.698276495	481.0
4.311	467.013165277	534.0
4.3213	467.33007134	502.0
4.3315	467.642844727	499.0
4.3418	467.957621843	538.0
4.352	468.268294046	532.0
4.3622	468.577926048	488.0
4.3725	468.889541653	543.0
4.3827	469.197093574	475.0
4.393	469.506615774	499.0
4.4032	469.812101589	510.0
4.4134	470.116564567	482.0
4.4237	470.422978034	504.0
4.4339	470.725395657	476.0
4.4442	471.029750666	535.0
4.4544	471.330136674	501.0
4.4646	471.629516921	502.0
4.4749	471.930815096	498.0
4.4851	472.228184132	485.0
4.4954	472.527458213	482.0
4.5056	472.822829551	456.0
4.5158	473.117211918	518.0
4.5261	473.413480194	467.0
4.5363	473.705884927	472.0
4.5466	474.0001629	505.0
4.5568	474.290603283	506.0
4.567	474.580071205	489.0
4.5773	474.871393554	471.0
4.5875	475.158916856	516.0
4.5978	475.448282127	501.0
4.608	475.733873874	512.0
4.6182	476.018509393	505.0
4.6285	476.304968381	479.0
4.6387	476.587691744	485.0
4.649	476.872226327	464.0
4.6592	477.15305038	443.0
4.6694	477.432934169	484.0
4.6797	477.714610986	489.0
4.6899	477.992614541	449.0
4.7002	478.272399078	482.0
4.7104	478.54853503	481.0
4.7206	478.823746416	491.0
4.7309	479.100720895	446.0
4.7411	479.374083435	496.0
4.7514	479.649197225	442.0
4.7616	479.920723339	458.0
4.7718	480.191340322	476.0
4.7821	480.463690966	444.0
4.7923	480.732489968	440.0
4.8026	481.003010984	429.0
4.8128	481.270004218	417.0
4.823	481.536103497	436.0
4.8333	481.803907496	461.0
4.8435	482.068219144	430.0
4.8538	482.334224059	434.0
4.864	482.596760085	454.0
4.8742	482.858417079	428.0
4.8845	483.121750335	413.0
4.8947	483.381649541	477.0
4.905	483.643213747	434.0
4.9152	483.901366974	430.0
4.9254	484.158655844	431.0
4.9357	484.417592992	456.0
4.9459	484.673153418	428.0
4.9562	484.930351049	427.0
4.9664	485.184194643	441.0
4.9766	485.437188311	391.0
4.9869	485.691802739	403.0
4.9971	485.943096817	395.0
5.0074	486.196000768	384.0
5.0176	486.445606676	411.0
5.0278	486.694376845	452.0
5.0381	486.944740718	401.0
5.0483	487.191839672	386.0
5.0586	487.440521622	401.0
5.0688	487.685960587	447.0
5.079	487.930577765	401.0
5.0893	488.176762042	411.0
5.0995	488.419735904	393.0
5.1098	488.664266337	398.0
5.12	488.905607922	409.0
5.1302	489.146141441	415.0
5.1405	489.388215896	411.0
5.1507	489.627133531	440.0
5.161	489.867581751	387.0
5.1712	490.104894359	404.0
5.1814	490.34141239	364.0
5.1917	490.579445633	461.0
5.2019	490.814374757	397.0
5.2122	491.050808914	436.0
5.2224	491.284159805	399.0
5.2326	491.516729383	392.0
5.2429	491.750788879	402.0
5.2531	491.981796075	395.0
5.2634	492.21428318	397.0
5.2736	492.443738491	412.0
5.2838	492.672425533	427.0
5.2941	492.902577619	387.0
5.3043	493.129728361	395.0
5.3146	493.358334306	425.0
5.3248	493.58395907	380.0
5.335	493.80882839	429.0
5.3453	494.035138298	392.0
5.3555	494.258496966	415.0
5.3658	494.483286543	380.0
5.376	494.705144708	369.0
5.3862	494.92626004	383.0
5.3965	495.14879191	404.0
5.4067	495.36842181	379.0
5.417	495.58945873	388.0
5.4272	495.807613176	393.0
5.4374	496.02503719	411.0
5.4477	496.243854093	419.0
5.4579	496.459817472	408.0
5.4682	496.677164383	400.0
5.4784	496.891676939	408.0
5.4886	497.105471258	439.0
5.4989	497.320635213	419.0
5.5091	497.532993281	403.0
5.5194	497.746711784	403.0
5.5296	497.957643249	441.0
5.5398	498.167868466	447.0
5.5501	498.379440456	422.0
5.5603	498.5882534	467.0
5.5706	498.798404067	415.0
5.5808	499.005814224	406.0
5.591	499.212529924	426.0
5.6013	499.420569912	419.0
5.6115	499.625896914	408.0
5.6218	499.832539309	431.0
5.632	500.036486943	401.0
5.6422	500.239751712	403.0
5.6525	500.444318663	408.0
5.6627	500.646217919	400.0
5.673	500.849410607	369.0
5.6832	501.049953521	410.0
5.6934	501.249824972	417.0
5.7037	501.450976864	387.0
5.7139	501.649505596	416.0
5.7242	501.849306168	425.0
5.7344	502.046501201	384.0
5.7446	502.24303598	412.0
5.7549	502.440829826	397.0
5.7651	502.636044301	412.0
5.7754	502.832509385	387.0
5.7856	503.026412428	386.0
5.7958	503.219666238	405.0
5.8061	503.414158096	392.0
5.8163	503.606113644	362.0
5.8266	503.799298923	397.0
5.8368	503.989964932	360.0
5.847	504.179992546	351.0
5.8573	504.37123754	386.0
5.8675	504.559988566	356.0
5.8778	504.749948793	375.0
5.888	504.937431806	370.0
5.8982	505.124287083	375.0
5.9085	505.312339417	346.0
5.9187	505.497939417	317.0
5.929	505.684728431	327.0
5.9392	505.869081587	357.0
5.9494	506.052817486	318.0
5.9597	506.237730457	352.0
5.9699	506.420232035	314.0
5.9802	506.603902777	279.0
5.9904	506.785178326	337.0
6.0006	506.965846921	303.0
6.0109	507.14767294	307.0
6.0211	507.32712782	289.0
6.0314	507.507732347	308.0
6.0416	507.685981666	312.0
6.0518	507.863634165	310.0
6.0621	508.042424764	281.0
6.0723	508.218883809	279.0
6.0826	508.396473308	254.0
6.0928	508.571746917	260.0
6.103	508.74643367	285.0
6.1133	508.922239523	264.0
6.1235	509.095752745	266.0
6.1338	509.270377551	253.0
6.144	509.442725127	253.0
6.1542	509.614495643	250.0
6.1645	509.787366578	259.0
6.1747	509.957983156	236.0
6.185	510.12969276	248.0
6.1952	510.29916315	260.0
6.2054	510.468066115	224.0
6.2157	510.638051128	223.0
6.2259	510.805819418	243.0
6.2362	510.974662486	229.0
6.2464	511.141303724	213.0
6.2566	511.307387008	189.0
6.2669	511.474534276	190.0
6.2771	511.639501827	216.0
6.2874	511.805526215	216.0
6.2976	511.969385529	200.0
6.3078	512.132696205	172.0
6.3181	512.297053102	190.0
6.3283	512.459266671	180.0
6.3386	512.622519433	156.0
6.3488	512.783643266	169.0
6.359	512.944227618	186.0
6.3693	513.105840727	139.0
6.3795	513.265346289	158.0
6.3898	513.425873695	164.0
6.4	513.584307713	151.0
6.4102	513.742211256	156.0
6.4205	513.901126382	159.0
6.4307	514.057969144	138.0
6.441	514.215816692	146.0
6.4512	514.371605798	126.0
6.4614	514.526873286	140.0
6.4717	514.683135469	139.0
6.4819	514.837359884	97.0
6.4922	514.992572312	113.0
6.5024	515.145760661	99.0
6.5126	515.2984361	124.0
6.5229	515.452089629	101.0
6.5331	515.603739408	103.0
6.5434	515.756360706	100.0
6.5536	515.906991716	110.0
6.5638	516.057118378	90.0
6.5741	516.208206801	101.0
6.5843	516.357324926	88.0
6.5946	516.507398351	100.0
6.6048	516.655514713	98.0
6.615	516.803135148	79.0
6.6253	516.951701288	75.0
6.6355	517.098330022	74.0
6.6458	517.245898108	73.0
6.656	517.391541803	72.0
6.6662	517.536697849	63.0
6.6765	517.682783813	74.0
6.6867	517.826964715	65.0
6.697	517.972069286	64.0
6.7072	518.115281593	58.0
6.7174	518.258014392	73.0
6.7277	518.401661584	54.0
6.7379	518.543435517	63.0
6.7482	518.6861177	61.0
6.7584	518.826939208	58.0
6.7686	518.967289213	44.0
6.7789	519.108538346	49.0
6.7891	519.247945493	45.0
6.7994	519.388245727	50.0
6.8096	519.526716349	49.0
6.8198	519.664723339	51.0
6.8301	519.803614447	41.0
6.8403	519.940694319	33.0
6.8506	520.078652369	41.0
6.8608	520.21481135	44.0
6.871	520.350514439	39.0
6.8813	520.487086887	49.0
6.8915	520.621878336	25.0
6.9018	520.757533302	30.0
6.912	520.891419233	30.0
6.9222	521.024856884	25.0
6.9325	521.159149379	21.0
6.9427	521.291690607	24.0
6.953	521.425080938	42.0
6.9632	521.556731766	26.0
6.9734	521.687941797	26.0
6.9837	521.819992402	19.0
6.9939	521.950320975	18.0
7.0042	522.081484476	22.0
7.0144	522.210937514	22.0
7.0246	522.339957113	19.0
7.0349	522.469803254	21.0
7.0451	522.597956111	20.0
7.0554	522.726929957	17.0
7.0656	522.854221894	10.0
7.0758	522.981087629	26.0
7.0861	523.108766107	16.0
7.0963	523.234779569	20.0
7.1066	523.361600315	11.0
7.1168	523.486767229	18.0
7.127	523.611515057	18.0
7.1373	523.737062059	17.0
7.1475	523.860971841	13.0
7.1578	523.985675431	12.0
7.168	524.108752798	15.0
7.1782	524.231418074	20.0
7.1885	524.354869184	17.0
7.1987	524.476710406	13.0
7.209	524.599332182	17.0
7.2192	524.720354886	9.0
7.2294	524.840972377	16.0
7.2397	524.962362584	11.0
7.2499	525.082169777	8.0
7.2602	525.202744495	12.0
7.2704	525.321746835	11.0
7.2806	525.440350728	11.0
7.2909	525.559714436	21.0
7.3011	525.677521558	14.0
7.3114	525.796083391	13.0
7.3216	525.913099095	11.0
7.3318	526.029723004	10.0
7.3421	526.147094044	11.0
7.3523	526.262934484	13.0
7.3626	526.379517035	7.0
7.3728	526.494579269	4.0
7.383	526.609256249	7.0
7.3933	526.724667886	6.0
7.4035	526.838574476	6.0
7.4138	526.953210788	4.0
7.424	527.066352163	9.0
7.4342	527.179114715	6.0
7.4445	527.292599661	9.0
7.4547	527.404604684	8.0
7.465	527.517327248	3.0
7.4752	527.628579831	5.0
7.4854	527.739459915	7.0
7.4957	527.851050333	5.0
7.5059	527.961185535	9.0
7.5162	528.072026298	7.0
7.5264	528.181421621	4.0
7.5366	528.290450664	7.0
7.5469	528.400178182	7.0
7.5571	528.508474776	5.0
7.5674	528.617465155	4.0
7.5776	528.725034223	8.0
7.5878	528.832243125	4.0
7.5981	528.940138842	4.0
7.6083	529.046627524	4.0
7.6186	529.153798408	8.0
7.6288	529.259571709	5.0
7.639	529.364990856	7.0
7.6493	529.471085353	4.0
7.6595	529.575796304	1.0
7.6698	529.681178067	3.0
7.68	529.785185579	8.0
7.6902	529.88884485	9.0
7.7005	529.993168196	5.0
7.7107	530.096131093	8.0
7.721	530.199753605	4.0
7.7312	530.302024806	7.0
7.7414	530.40395358	3.0
7.7517	530.506535344	5.0
7.7619	530.607779369	4.0
7.7722	530.709671997	4.0
7.7824	530.810235875	5.0
