TL-DOS Lehrstuhlversuch
detector=R1407306
job_number=2015-10-26-005
irradiation_dose [mSv]=10.0

[BEGIN DATA]
time [sec] 	 temperature [K] 	 photoncount 
0.0	66.3666483789	0.0
0.0102	68.885983189	0.0
0.0205	71.4164226923	1.0
0.0307	73.9089039659	2.0
0.041	76.4123715681	1.0
0.0512	78.8782855366	0.0
0.0614	81.3310863427	1.0
0.0717	83.7946985743	1.0
0.0819	86.2213550285	2.0
0.0922	88.6587076695	2.0
0.1024	91.0594984439	1.0
0.1126	93.4475223661	1.0
0.1229	95.846072191	0.0
0.1331	98.2086422167	2.0
0.1434	100.58162595	2.0
0.1536	102.919013392	3.0
0.1638	105.243971145	2.0
0.1741	107.57917682	0.0
0.1843	109.879352898	3.0
0.1946	112.189667665	2.0
0.2048	114.465326215	0.0
0.215	116.728883337	1.0
0.2253	119.002417739	1.0
0.2355	121.241847654	0.0
0.2458	123.491148501	0.0
0.256	125.706708379	2.0
0.2662	127.910486421	0.0
0.2765	130.123978249	0.0
0.2867	132.304266267	1.0
0.297	134.494164532	0.0
0.3072	136.651212907	0.0
0.3174	138.796790595	0.0
0.3277	140.951825534	1.0
0.3379	143.074533555	0.0
0.3482	145.206598023	1.0
0.3584	147.306680144	0.0
0.3686	149.395594512	0.0
0.3789	151.493716371	0.0
0.3891	153.560365045	0.0
0.3994	155.636123068	0.0
0.4096	157.680743378	0.0
0.4198	159.714490868	0.0
0.4301	161.757202685	0.0
0.4403	163.769272503	0.0
0.4506	165.790211098	0.0
0.4608	167.780834307	0.0
0.471	169.76087184	1.0
0.4813	171.749636959	0.0
0.4915	173.708569314	0.0
0.5018	175.676136227	0.0
0.512	177.614188363	0.0
0.5222	179.541934385	0.0
0.5325	181.478177502	0.0
0.5427	183.38537572	0.0
0.553	185.300980462	0.0
0.5632	187.187849895	1.0
0.5734	189.06468539	0.0
0.5837	190.949793578	0.0
0.5939	192.806623923	0.0
0.6042	194.671638783	0.0
0.6144	196.508677213	0.0
0.6246	198.335946696	0.0
0.6349	200.171270395	0.0
0.6451	201.979063051	0.0
0.6554	203.794824074	0.0
0.6656	205.583347506	0.0
0.6758	207.362359983	0.0
0.6861	209.149213969	0.0
0.6963	210.90926399	0.0
0.7066	212.677071937	0.0
0.7168	214.418361622	1.0
0.727	216.150391529	0.0
0.7373	217.890055857	0.0
0.7475	219.603624094	1.0
0.7578	221.324745376	2.0
0.768	223.020048726	2.0
0.7782	224.706336843	0.0
0.7885	226.40005776	1.0
0.7987	228.068371767	0.0
0.809	229.744039349	0.0
0.8192	231.394570833	0.0
0.8294	233.036325171	0.0
0.8397	234.685316013	0.0
0.8499	236.309570926	0.0
0.8602	237.94098521	0.0
0.8704	239.547927224	0.0
0.8806	241.146323891	0.0
0.8909	242.751765951	0.0
0.9011	244.333125341	1.0
0.9114	245.921455028	0.0
0.9216	247.485958743	0.0
0.9318	249.042142787	1.0
0.9421	250.60518616	2.0
0.9523	252.144782871	1.0
0.9626	253.691165797	0.0
0.9728	255.21435198	0.0
0.983	256.729438209	0.0
0.9933	258.251202617	1.0
1.0035	259.750139574	0.0
1.0138	261.255683527	0.0
1.024	262.738643347	0.0
1.0342	264.213717128	1.0
1.0445	265.695292721	1.0
1.0547	267.154643722	1.0
1.065	268.620427232	0.0
1.0752	270.064223042	3.0
1.0854	271.500341078	1.0
1.0957	272.942789217	3.0
1.1059	274.363599701	3.0
1.1162	275.790672817	1.0
1.1264	277.196338912	1.0
1.1366	278.594529999	0.0
1.1469	279.998884015	2.0
1.1571	281.382171813	4.0
1.1674	282.77155685	3.0
1.1776	284.140100212	2.0
1.1878	285.501365976	3.0
1.1981	286.86863191	4.0
1.2083	288.215387971	1.0
1.2186	289.568080247	2.0
1.2288	290.900481264	1.0
1.239	292.225796879	3.0
1.2493	293.556954204	2.0
1.2595	294.868143308	9.0
1.2698	296.185111855	8.0
1.28	297.482325022	0.0
1.2902	298.772639908	6.0
1.3005	300.068642229	4.0
1.3107	301.345203676	3.0
1.321	302.627391935	3.0
1.3312	303.890346541	3.0
1.3414	305.146585045	6.0
1.3517	306.408360781	8.0
1.3619	307.651209066	13.0
1.3722	308.899535562	9.0
1.3824	310.129136353	8.0
1.3926	311.35219841	11.0
1.4029	312.580651465	10.0
1.4131	313.790676929	12.0
1.4234	315.006035929	9.0
1.4336	316.203163758	11.0
1.4438	317.393925537	12.0
1.4541	318.589935941	17.0
1.4643	319.768005415	23.0
1.4746	320.951267569	11.0
1.4848	322.116780026	12.0
1.495	323.276094556	19.0
1.5053	324.440519098	22.0
1.5155	325.587476519	15.0
1.5258	326.739489484	25.0
1.536	327.87422151	30.0
1.5462	329.002919293	29.0
1.5565	330.136592135	27.0
1.5667	331.253259152	31.0
1.577	332.3748482	32.0
1.5872	333.479612686	31.0
1.5974	334.57850229	49.0
1.6077	335.682235565	50.0
1.6179	336.769412128	47.0
1.6282	337.861380734	39.0
1.6384	338.936969104	62.0
1.6486	340.006837744	63.0
1.6589	341.081422137	65.0
1.6691	342.139887069	61.0
1.6794	343.20301749	62.0
1.6896	344.250200267	74.0
1.6998	345.291814367	96.0
1.7101	346.338019681	80.0
1.7203	347.368531238	98.0
1.7306	348.403585072	104.0
1.7408	349.423112428	116.0
1.751	350.437218173	125.0
1.7613	351.455793881	123.0
1.7715	352.459090294	122.0
1.7818	353.466809025	146.0
1.792	354.459411323	142.0
1.8022	355.446735191	151.0
1.8125	356.438410973	156.0
1.8227	357.415210976	207.0
1.833	358.396316507	206.0
1.8432	359.36270482	187.0
1.8534	360.323954102	235.0
1.8637	361.289440367	188.0
1.8739	362.240443714	262.0
1.8842	363.195638882	238.0
1.8944	364.136505504	302.0
1.9046	365.072368814	301.0
1.9149	366.012357211	299.0
1.9251	366.938245174	343.0
1.9354	367.868214255	345.0
1.9456	368.784233198	343.0
1.9558	369.695380963	402.0
1.9661	370.610544874	448.0
1.9763	371.511980734	473.0
1.9866	372.417389933	458.0
1.9968	373.309217407	485.0
2.007	374.196302349	526.0
2.0173	375.087297372	535.0
2.0275	375.964926894	586.0
2.0378	376.846424821	616.0
2.048	377.714699708	618.0
2.0582	378.57835731	672.0
2.0685	379.445821731	759.0
2.0787	380.300273624	769.0
2.089	381.158491761	823.0
2.0992	382.003836069	811.0
2.1094	382.844685032	835.0
2.1197	383.689240278	864.0
2.1299	384.52112665	891.0
2.1402	385.356679799	963.0
2.1504	386.179699111	987.0
2.1606	386.998341796	1052.0
2.1709	387.820592884	1079.0
2.1811	388.630509674	1113.0
2.1914	389.443996406	1161.0
2.2016	390.24528031	1193.0
2.2118	391.04230317	1226.0
2.2221	391.842839139	1235.0
2.2323	392.63136655	1393.0
2.2426	393.423369622	1323.0
2.2528	394.203492136	1399.0
2.263	394.979466138	1413.0
2.2733	395.758860469	1409.0
2.2835	396.526563381	1467.0
2.2938	397.297650164	1557.0
2.304	398.057170147	1496.0
2.3142	398.812651177	1593.0
2.3245	399.571462207	1574.0
2.3347	400.318890581	1627.0
2.345	401.069613461	1646.0
2.3552	401.809075012	1585.0
2.3654	402.544604276	1603.0
2.3757	403.283375598	1638.0
2.3859	404.011064871	1590.0
2.3962	404.741961645	1604.0
2.4064	405.461894494	1605.0
2.4166	406.177998906	1599.0
2.4269	406.897259755	1613.0
2.4371	407.605731225	1543.0
2.4474	408.317325487	1519.0
2.4576	409.018245375	1547.0
2.4678	409.715437933	1427.0
2.4781	410.415703567	1433.0
2.4883	411.105464764	1367.0
2.4986	411.798266282	1397.0
2.5088	412.480675328	1389.0
2.519	413.159455481	1297.0
2.5293	413.841227552	1267.0
2.5395	414.512772602	1200.0
2.5498	415.187277679	1153.0
2.56	415.851664744	1146.0
2.5702	416.512518752	1105.0
2.5805	417.176285663	1044.0
2.5907	417.830095642	1048.0
2.601	418.486787476	1005.0
2.6112	419.133628508	1035.0
2.6214	419.777029789	972.0
2.6317	420.423267045	985.0
2.6419	421.059810325	915.0
2.6522	421.699159352	939.0
2.6624	422.328917731	928.0
2.6726	422.955327199	958.0
2.6829	423.584497748	914.0
2.6931	424.204230331	883.0
2.7034	424.826694563	894.0
2.7136	425.43982143	955.0
2.7238	426.049687829	965.0
2.7341	426.66224239	949.0
2.7443	427.265608236	985.0
2.7546	427.871633591	1006.0
2.7648	428.468568174	1050.0
2.775	429.062328395	1040.0
2.7853	429.658705786	1055.0
2.7955	430.24613713	1130.0
2.8058	430.836157747	1134.0
2.816	431.417327673	1174.0
2.8262	431.995407071	1251.0
2.8365	432.576034521	1256.0
2.8467	433.147952183	1282.0
2.857	433.722390736	1278.0
2.8672	434.28821234	1348.0
2.8774	434.851025035	1391.0
2.8877	435.416318489	1395.0
2.8979	435.973132175	1423.0
2.9082	436.532400178	1444.0
2.9184	437.083278799	1484.0
2.9286	437.631227974	1501.0
2.9389	438.181592393	1514.0
2.9491	438.72370099	1642.0
2.9594	439.268199086	1692.0
2.9696	439.804529359	1678.0
2.9798	440.33800755	1669.0
2.9901	440.873837201	1718.0
3.0003	441.40162906	1754.0
3.0106	441.931747313	1708.0
3.0208	442.45391345	1704.0
3.031	442.973302828	1767.0
3.0413	443.494981563	1770.0
3.0515	444.008834781	1742.0
3.0618	444.524952954	1848.0
3.072	445.03332902	1865.0
3.0822	445.53900166	1873.0
3.0925	446.046903198	1836.0
3.1027	446.547185883	1865.0
3.113	447.049673709	1940.0
3.1232	447.544623892	1767.0
3.1334	448.036942045	1869.0
3.1437	448.531430231	1922.0
3.1539	449.018500774	1864.0
3.1642	449.507718221	1896.0
3.1744	449.98959709	1897.0
3.1846	450.468913438	1817.0
3.1949	450.950342511	1878.0
3.2051	451.424549836	1851.0
3.2154	451.900847367	1835.0
3.2256	452.370000126	1817.0
3.2358	452.836658039	1726.0
3.2461	453.305372881	1782.0
3.2563	453.767056698	1776.0
3.2666	454.230775518	1728.0
3.2768	454.687538256	1779.0
3.287	455.141872036	1722.0
3.2973	455.598208422	1730.0
3.3075	456.047699467	1617.0
3.3178	456.499171773	1637.0
3.328	456.943871703	1661.0
3.3382	457.38620682	1611.0
3.3485	457.830491657	1584.0
3.3587	458.268111935	1528.0
3.369	458.707661149	1546.0
3.3792	459.140616841	1565.0
3.3894	459.571270174	1607.0
3.3997	460.003821736	1550.0
3.4099	460.429884744	1505.0
3.4202	460.857825748	1490.0
3.4304	461.27934736	1510.0
3.4406	461.698627417	1449.0
3.4509	462.119755571	1546.0
3.4611	462.534566531	1477.0
3.4714	462.95120589	1521.0
3.4816	463.361595388	1446.0
3.4918	463.76980253	1486.0
3.5021	464.179808962	1501.0
3.5123	464.583665032	1500.0
3.5226	464.989301215	1538.0
3.5328	465.388852592	1458.0
3.543	465.786279247	1437.0
3.5533	466.185457674	1467.0
3.5635	466.578648167	1523.0
3.5738	466.97357176	1527.0
3.584	467.362571243	1469.0
3.5942	467.749502117	1505.0
3.6045	468.1381385	1486.0
3.6147	468.520945086	1578.0
3.625	468.905439002	1416.0
3.6352	469.284165261	1484.0
3.6454	469.66087754	1518.0
3.6557	470.039250288	1484.0
3.6659	470.411947199	1518.0
3.6762	470.786286879	1532.0
3.6864	471.155011222	1508.0
3.6966	471.521774774	1446.0
3.7069	471.890154942	1484.0
3.7171	472.253009168	1494.0
3.7274	472.61746278	1485.0
3.7376	472.976449351	1496.0
3.7478	473.333526914	1538.0
3.7581	473.6921784	1469.0
3.7683	474.045449881	1596.0
3.7786	474.400278508	1452.0
3.7888	474.749784476	1492.0
3.799	475.097431852	1445.0
3.8093	475.446611584	1494.0
3.8195	475.790553393	1441.0
3.8298	476.136011226	1446.0
3.84	476.476286967	1464.0
3.8502	476.8147532	1467.0
3.8605	477.154711321	1420.0
3.8707	477.48956985	1395.0
3.881	477.825904364	1480.0
3.8912	478.157193643	1389.0
3.9014	478.486721202	1392.0
3.9117	478.817701248	1455.0
3.9219	479.143716379	1504.0
3.9322	479.471168517	1394.0
3.9424	479.79370866	1419.0
3.9526	480.114533609	1465.0
3.9629	480.436772686	1423.0
3.9731	480.754177969	1442.0
3.9834	481.072982306	1435.0
3.9936	481.387004373	1327.0
4.0038	481.699356542	1297.0
4.0141	482.013085494	1296.0
4.0243	482.322108308	1262.0
4.0346	482.632493229	1341.0
4.0448	482.938222176	1346.0
4.055	483.242325327	1267.0
4.0653	483.547768899	1328.0
4.0755	483.848630621	1321.0
4.0858	484.150818477	1314.0
4.096	484.44847332	1247.0
4.1062	484.744545303	1280.0
4.1165	485.041922308	1275.0
4.1267	485.334838466	1243.0
4.137	485.629045736	1300.0
4.1472	485.918839707	1261.0
4.1574	486.20709262	1228.0
4.1677	486.496616091	1243.0
4.1779	486.781796522	1254.0
4.1882	487.068233969	1300.0
4.1984	487.350374668	1233.0
4.2086	487.631015008	1147.0
4.2189	487.912892351	1238.0
4.2291	488.190541352	1236.0
4.2394	488.46941417	1184.0
4.2496	488.744103716	1157.0
4.2598	489.017332526	1116.0
4.2701	489.291765671	1225.0
4.2803	489.562082141	1159.0
4.2906	489.833590108	1195.0
4.3008	490.101025281	1144.0
4.311	490.367038294	1126.0
4.3213	490.634223837	1148.0
4.3315	490.897401424	1143.0
4.3418	491.161739042	1183.0
4.352	491.422111424	1165.0
4.3622	491.681099206	1163.0
4.3725	491.941228551	1126.0
4.3827	492.197455788	1140.0
4.393	492.45481242	1072.0
4.4032	492.708308536	1143.0
4.4134	492.960456618	1188.0
4.4237	493.213716115	1152.0
4.4339	493.463176557	1170.0
4.4442	493.713736566	1123.0
4.4544	493.960538014	1153.0
4.4646	494.206027028	1179.0
4.4749	494.452598106	1130.0
4.4851	494.695470458	1163.0
4.4954	494.93941334	1179.0
4.5056	495.17969692	1155.0
4.5158	495.418702728	1136.0
4.5261	495.658762023	1107.0
4.5363	495.895220273	1148.0
4.5466	496.132720781	1159.0
4.5568	496.366658628	1217.0
4.567	496.599352447	1154.0
4.5773	496.833071931	1186.0
4.5875	497.063285472	1144.0
4.5978	497.294513745	1142.0
4.608	497.522273445	1123.0
4.6182	497.74882197	1194.0
4.6285	497.976369074	1147.0
4.6387	498.200502824	1174.0
4.649	498.425624508	1189.0
4.6592	498.64736922	1110.0
4.6694	498.867934746	1104.0
4.6797	499.089472478	1155.0
4.6899	499.307687	1105.0
4.7002	499.526863366	1078.0
4.7104	499.742751944	1134.0
4.7206	499.957492477	1096.0
4.7309	500.17317954	1133.0
4.7411	500.385631158	1110.0
4.7514	500.599019218	1090.0
4.7616	500.809206318	1082.0
4.7718	501.018275692	1105.0
4.7821	501.2282666	1120.0
4.7923	501.435107508	1059.0
4.8026	501.642860126	1064.0
4.8128	501.847496321	1018.0
4.823	502.051044308	1014.0
4.8333	502.255489492	1018.0
4.8435	502.456867865	1041.0
4.8538	502.659133871	1000.0
4.864	502.858365757	1076.0
4.8742	503.056538173	985.0
4.8845	503.255584091	936.0
4.8947	503.451644192	952.0
4.905	503.648568484	1003.0
4.9152	503.842538784	923.0
4.9254	504.035477595	944.0
4.9357	504.229266839	974.0
4.9459	504.420149119	932.0
4.9562	504.611872767	893.0
4.9664	504.800720437	886.0
4.9766	504.988563859	911.0
4.9869	505.177235254	885.0
4.9971	505.363076457	840.0
5.0074	505.549736808	872.0
5.0176	505.733597133	810.0
5.0278	505.916479731	802.0
5.0381	506.100168436	802.0
5.0483	506.281101693	786.0
5.0586	506.462832465	773.0
5.0688	506.641837157	749.0
5.079	506.819889944	667.0
5.0893	506.99872755	750.0
5.0995	507.174882476	715.0
5.1098	507.351813856	660.0
5.12	507.52609115	631.0
5.1302	507.699441678	680.0
5.1405	507.873556298	637.0
5.1507	508.045059086	605.0
5.161	508.217317823	613.0
5.1712	508.386992566	607.0
5.1814	508.555765019	538.0
5.1917	508.725281384	550.0
5.2019	508.892254895	564.0
5.2122	509.059964389	514.0
5.2224	509.225158133	534.0
5.2326	509.389473414	512.0
5.2429	509.554512962	519.0
5.2531	509.71707681	498.0
5.2634	509.880357205	495.0
5.2736	510.041188288	470.0
5.2838	510.201164109	454.0
5.2941	510.361845069	407.0
5.3043	510.520115711	421.0
5.3146	510.679083976	389.0
5.3248	510.835667615	404.0
5.335	510.991418577	399.0
5.3453	511.147856057	349.0
5.3555	511.301946874	332.0
5.3658	511.45671689	319.0
5.376	511.609165256	306.0
5.3862	511.760802936	315.0
5.3965	511.913109003	300.0
5.4067	512.063130381	284.0
5.417	512.213813021	298.0
5.4272	512.362235324	281.0
5.4374	512.509868351	254.0
5.4477	512.658152114	253.0
5.4579	512.804211524	246.0
5.4682	512.950914733	225.0
5.4784	513.095417298	220.0
5.4886	513.239151433	206.0
5.4989	513.383519117	210.0
5.5091	513.525721192	205.0
5.5194	513.668550064	176.0
5.5296	513.809236411	192.0
5.5398	513.94917462	154.0
5.5501	514.089729647	148.0
5.5603	514.228176257	158.0
5.5706	514.367233111	161.0
5.5808	514.504204022	136.0
5.591	514.640446553	145.0
5.6013	514.777289613	147.0
5.6115	514.912079938	134.0
5.6218	515.04746439	117.0
5.632	515.180817988	122.0
5.6422	515.313462442	101.0
5.6525	515.446691564	111.0
5.6627	515.577922164	118.0
5.673	515.7097312	115.0
5.6832	515.839563016	91.0
5.6934	515.968704415	69.0
5.7037	516.098415043	90.0
5.7139	516.226179927	89.0
5.7242	516.354507972	75.0
5.7344	516.480911013	77.0
5.7446	516.606641872	81.0
5.7549	516.732926926	74.0
5.7651	516.857317622	57.0
5.7754	516.982256607	58.0
5.7856	517.105321425	53.0
5.7958	517.227731813	60.0
5.8061	517.35068176	59.0
5.8163	517.471787379	59.0
5.8266	517.593426805	42.0
5.8368	517.713241561	50.0
5.847	517.83241917	43.0
5.8573	517.952122089	42.0
5.8675	518.070029386	51.0
5.8778	518.188456394	42.0
5.888	518.30510692	50.0
5.8982	518.421137125	39.0
5.9085	518.537678767	28.0
5.9187	518.652472209	34.0
5.929	518.767771636	37.0
5.9392	518.881341497	35.0
5.9494	518.994307419	29.0
5.9597	519.107771271	25.0
5.9699	519.219533093	32.0
5.9802	519.331787536	30.0
5.9904	519.442358091	28.0
6.0006	519.552340656	22.0
6.0109	519.662808002	28.0
6.0211	519.771618265	36.0
6.0314	519.880908142	20.0
6.0416	519.988558599	36.0
6.0518	520.095636596	19.0
6.0621	520.20318657	22.0
6.0723	520.309123225	23.0
6.0826	520.415526827	29.0
6.0928	520.520334305	20.0
6.103	520.624584442	25.0
6.1133	520.72929409	24.0
6.1235	520.832433027	19.0
6.1338	520.936026578	19.0
6.144	521.038066158	16.0
6.1542	521.139563116	21.0
6.1645	521.241507451	19.0
6.1747	521.341922555	18.0
6.185	521.442780267	11.0
6.1952	521.542125048	18.0
6.2054	521.640941537	17.0
6.2157	521.740193588	14.0
6.2259	521.837956793	17.0
6.2362	521.936150919	17.0
6.2464	522.032872069	14.0
6.2566	522.129078878	22.0
6.2669	522.225709746	11.0
6.2771	522.320891089	16.0
6.2874	522.41649197	12.0
6.2976	522.510658777	19.0
6.3078	522.604324827	14.0
6.3181	522.698403736	9.0
6.3283	522.791071401	18.0
6.3386	522.884147525	12.0
6.3488	522.975827448	17.0
6.359	523.067019837	11.0
6.3693	523.158614184	11.0
6.3795	523.248834555	10.0
6.3898	523.339452599	8.0
6.4	523.428711314	12.0
6.4102	523.517495372	8.0
6.4205	523.606670771	16.0
6.4307	523.694508481	7.0
6.441	523.782733361	13.0
6.4512	523.869634811	9.0
6.4614	523.956074139	13.0
6.4717	524.042894473	9.0
6.4819	524.128412446	16.0
6.4922	524.214307364	10.0
6.5024	524.298913802	10.0
6.5126	524.383070324	8.0
6.5229	524.467597789	10.0
6.5331	524.550857287	7.0
6.5434	524.634483776	12.0
6.5536	524.716855814	10.0
6.5638	524.798789815	6.0
6.5741	524.881084965	12.0
6.5843	524.962145634	4.0
6.5946	525.043563601	16.0
6.6048	525.123760246	11.0
6.615	525.203530424	5.0
6.6253	525.283652212	7.0
6.6355	525.362572121	6.0
6.6458	525.441839892	11.0
6.656	525.519918596	7.0
6.6662	525.597582095	9.0
6.6765	525.675587918	14.0
6.6867	525.752423604	11.0
6.697	525.829597964	10.0
6.7072	525.90561466	10.0
6.7174	525.981227116	6.0
6.7277	526.057172856	8.0
6.7379	526.13197936	9.0
6.7482	526.207115596	12.0
6.7584	526.28112474	9.0
6.7686	526.35474032	7.0
6.7789	526.428680382	8.0
6.7891	526.501511295	8.0
6.7994	526.574663231	8.0
6.8096	526.646717841	9.0
6.8198	526.718389281	6.0
6.8301	526.790376634	3.0
6.8403	526.86128413	9.0
6.8506	526.932504171	6.0
6.8608	527.002655865	9.0
6.871	527.072434509	6.0
6.8813	527.142520722	2.0
6.8915	527.211555597	6.0
6.9018	527.280894762	5.0
6.912	527.349193796	2.0
6.9222	527.417129631	12.0
6.9325	527.485364912	4.0
6.9427	527.552576621	5.0
6.953	527.620084584	2.0
6.9632	527.686579884	8.0
6.9734	527.752721577	7.0
6.9837	527.819154809	2.0
6.9939	527.8845915	7.0
7.0042	527.950316621	6.0
7.0144	528.015055823	4.0
7.0246	528.079450757	7.0
7.0349	528.144129531	8.0
7.0451	528.20783808	4.0
7.0554	528.271827444	5.0
7.0656	528.334856926	7.0
7.0758	528.397551231	7.0
7.0861	528.46052188	8.0
7.0963	528.522547928	5.0
7.1066	528.584847374	3.0
7.1168	528.646212288	3.0
7.127	528.707250877	2.0
7.1373	528.768558511	6.0
7.1475	528.828946492	10.0
7.1578	528.889600649	2.0
7.168	528.949344956	5.0
7.1782	529.008771555	5.0
7.1885	529.068460095	4.0
7.1987	529.127253268	2.0
7.209	529.186305588	6.0
7.2192	529.244472086	7.0
7.2294	529.302329267	2.0
7.2397	529.360441471	4.0
7.2499	529.417681954	4.0
7.2602	529.475174741	7.0
7.2704	529.531805099	9.0
7.2806	529.58813431	7.0
7.2909	529.644711808	1.0
7.3011	529.700440607	4.0
7.3114	529.756415047	5.0
7.3216	529.811549833	6.0
7.3318	529.866391426	4.0
7.3421	529.921474749	3.0
7.3523	529.975731786	4.0
7.3626	530.030227977	5.0
7.3728	530.08390669	6.0
7.383	530.137299952	6.0
7.3933	530.19092856	7.0
7.4035	530.243752704	10.0
7.4138	530.296809685	2.0
7.424	530.349070778	2.0
7.4342	530.401053958	6.0
7.4445	530.453266269	6.0
7.4547	530.504695362	2.0
7.465	530.556351143	4.0
7.4752	530.607232054	5.0
7.4854	530.657842392	4.0
7.4957	530.70867581	5.0
7.5059	530.758746693	3.0
7.5162	530.809038278	4.0
7.5264	530.858575457	5.0
7.5366	530.907849209	3.0
7.5469	530.957340149	5.0
7.5571	531.006088693	4.0
7.5674	531.05505211	4.0
7.5776	531.103281044	6.0
7.5878	531.151253508	4.0
7.5981	531.199437424	6.0
7.6083	531.24689855	4.0
7.6186	531.294568875	3.0
7.6288	531.341524114	5.0
7.639	531.388229656	9.0
7.6493	531.435141066	4.0
7.6595	531.481348775	6.0
7.6698	531.527760157	8.0
7.68	531.573475339	6.0
7.6902	531.618947418	6.0
7.7005	531.664619928	7.0
7.7107	531.709607321	13.0
7.721	531.754793009	4.0
