TL-DOS Lehrstuhlversuch
detector=R1408306
job_number=2015-10-23-004
irradiation_dose [mSv]=4.0

[BEGIN DATA]
time [sec] 	 temperature [K] 	 photoncount 
0.0	151.038046954	0.0
0.0102	152.509513402	0.0
0.0205	153.989981951	0.0
0.0307	155.450725215	4.0
0.041	156.920404978	3.0
0.0512	158.370503201	0.0
0.0614	159.815333805	2.0
0.0717	161.269003558	2.0
0.0819	162.703305084	0.0
0.0922	164.146381344	1.0
0.1024	165.570230522	2.0
0.1126	166.988907432	2.0
0.1229	168.416263489	2.0
0.1331	169.824601914	3.0
0.1434	171.241556237	2.0
0.1536	172.639631517	1.0
0.1638	174.032628156	1.0
0.1741	175.434146836	1.0
0.1843	176.816992133	0.0
0.1946	178.208297366	0.0
0.2048	179.581065297	0.0
0.215	180.948846519	0.0
0.2253	182.324995518	3.0
0.2355	183.682809152	2.0
0.2458	185.048929584	0.0
0.256	186.396848269	0.0
0.2662	187.739870511	0.0
0.2765	189.091109061	1.0
0.2867	190.424344144	0.0
0.297	191.76573566	0.0
0.3072	193.089254908	0.0
0.3174	194.407966347	0.0
0.3277	195.734745366	0.0
0.3379	197.043846809	0.0
0.3482	198.36095704	1.0
0.3584	199.66051852	0.0
0.3686	200.955359219	0.0
0.3789	202.258121462	0.0
0.3891	203.543526122	0.0
0.3994	204.836794598	0.0
0.4096	206.112831982	0.0
0.4198	207.384234039	0.0
0.4301	208.663414249	0.0
0.4403	209.925551073	0.0
0.4506	211.195409367	1.0
0.4608	212.448348479	0.0
0.471	213.69673617	0.0
0.4813	214.952761217	2.0
0.4915	216.192051391	0.0
0.5018	217.438923264	0.0
0.512	218.669182218	0.0
0.5222	219.894972139	0.0
0.5325	221.128261168	0.0
0.5427	222.345118252	0.0
0.553	223.569419793	1.0
0.5632	224.777409136	0.0
0.5734	225.981010343	0.0
0.5837	227.191974911	0.0
0.5939	228.386804978	0.0
0.6042	229.588944747	0.0
0.6144	230.775067593	0.0
0.6246	231.956881736	0.0
0.6349	233.145925951	0.0
0.6451	234.319127725	0.0
0.6554	235.499506884	0.0
0.6656	236.664159051	1.0
0.6758	237.824580509	1.0
0.6861	238.992101165	0.0
0.6963	240.144066152	0.0
0.7066	241.303078602	0.0
0.7168	242.446648743	0.0
0.727	243.586064758	0.0
0.7373	244.732451463	0.0
0.7475	245.863564082	0.0
0.7578	247.001596594	0.0
0.768	248.124466327	0.0
0.7782	249.24325713	0.0
0.7885	250.368892443	0.0
0.7987	251.479530154	0.0
0.809	252.596962498	0.0
0.8192	253.699506533	0.0
0.8294	254.798045472	2.0
0.8397	255.903305025	1.0
0.8499	256.993838457	0.0
0.8602	258.091043527	0.0
0.8704	259.17362979	0.0
0.8806	260.252283456	2.0
0.8909	261.337536083	1.0
0.9011	262.408329154	0.0
0.9114	263.485673096	0.0
0.9216	264.548662855	1.0
0.9318	265.607791203	0.0
0.9421	266.67339906	0.0
0.9523	267.724809101	0.0
0.9626	268.782651433	0.0
0.9728	269.826399414	0.0
0.983	270.866355882	1.0
0.9933	271.91267457	0.0
1.0035	272.945052445	0.0
1.0138	273.983746176	0.0
1.024	275.008600687	0.0
1.0342	276.029732316	0.0
1.0445	277.057110999	0.0
1.0547	278.07080122	0.0
1.065	279.09069297	1.0
1.0752	280.096996011	2.0
1.0854	281.099643561	0.0
1.0957	282.108425083	0.0
1.1059	283.103765925	1.0
1.1162	284.105196039	0.0
1.1264	285.093283422	0.0
1.1366	286.077781482	0.0
1.1469	287.068302481	0.0
1.1571	288.045626097	0.0
1.1674	289.02892876	1.0
1.1776	289.999130215	2.0
1.1878	290.965807321	0.0
1.1981	291.93839834	0.0
1.2083	292.898030871	0.0
1.2186	293.863534217	3.0
1.2288	294.816173508	1.0
1.239	295.765352247	1.0
1.2493	296.720337847	1.0
1.2595	297.662599528	0.0
1.2698	298.610625754	0.0
1.28	299.546020784	1.0
1.2902	300.478017903	0.0
1.3005	301.41571677	2.0
1.3107	302.34092204	1.0
1.321	303.271787509	1.0
1.3312	304.190250426	4.0
1.3414	305.105376939	1.0
1.3517	306.02610199	2.0
1.3619	306.934559598	2.0
1.3722	307.848574945	3.0
1.3824	308.750412247	2.0
1.3926	309.648973539	1.0
1.4029	310.553032027	2.0
1.4131	311.445045131	0.0
1.4234	312.342515371	2.0
1.4336	313.228028007	4.0
1.4438	314.110323934	2.0
1.4541	314.998017549	2.0
1.4643	315.873883821	4.0
1.4746	316.755108446	2.0
1.4848	317.624591918	2.0
1.495	318.490916909	2.0
1.5053	319.362541882	1.0
1.5155	320.222553604	4.0
1.5258	321.087826685	5.0
1.536	321.941571146	3.0
1.5462	322.7922143	6.0
1.5565	323.648061497	2.0
1.5667	324.492505662	4.0
1.577	325.342115947	2.0
1.5872	326.180406298	10.0
1.5974	327.01565148	1.0
1.6077	327.856006504	8.0
1.6179	328.685164909	4.0
1.6282	329.519395919	3.0
1.6384	330.342511904	5.0
1.6486	331.162637841	5.0
1.6589	331.987781125	10.0
1.6691	332.801930466	7.0
1.6794	333.62106059	7.0
1.6896	334.429276888	12.0
1.6998	335.234557264	12.0
1.7101	336.044764163	8.0
1.7203	336.844176128	10.0
1.7306	337.648478715	12.0
1.7408	338.442065034	12.0
1.751	339.232768575	15.0
1.7613	340.028309463	9.0
1.7715	340.813250821	14.0
1.7818	341.602994273	16.0
1.792	342.382215438	20.0
1.8022	343.158606009	24.0
1.8125	343.939746362	20.0
1.8227	344.710479053	19.0
1.833	345.485926914	32.0
1.8432	346.251042957	19.0
1.8534	347.013379644	18.0
1.8637	347.780380135	27.0
1.8739	348.537161359	23.0
1.8842	349.298572401	18.0
1.8944	350.049838647	13.0
1.9046	350.798375848	27.0
1.9149	351.55149243	38.0
1.9251	352.294574731	34.0
1.9354	353.042203041	24.0
1.9456	353.779870194	43.0
1.9558	354.5148577	40.0
1.9661	355.254341694	51.0
1.9763	355.983973043	53.0
1.9866	356.718068112	52.0
1.9968	357.442382335	35.0
2.007	358.164065418	41.0
2.0173	358.890163595	40.0
2.0275	359.606587475	63.0
2.0378	360.327394275	65.0
2.048	361.038597278	60.0
2.0582	361.747216768	53.0
2.0685	362.460171433	64.0
2.0787	363.16362692	73.0
2.089	363.871385989	74.0
2.0992	364.569715105	87.0
2.1094	365.265507475	90.0
2.1197	365.965556545	84.0
2.1299	366.656278387	77.0
2.1402	367.351225911	102.0
2.1504	368.036914178	121.0
2.1606	368.720111616	126.0
2.1709	369.407488704	99.0
2.1811	370.0857074	99.0
2.1914	370.768075287	126.0
2.2016	371.441351523	134.0
2.2118	372.11218202	147.0
2.2221	372.787116507	163.0
2.2323	373.453058385	139.0
2.2426	374.123074345	172.0
2.2528	374.784163228	168.0
2.263	375.442850644	176.0
2.2733	376.105567761	196.0
2.2835	376.759455049	192.0
2.2938	377.417342672	217.0
2.304	378.066464813	213.0
2.3142	378.713228956	174.0
2.3245	379.363949857	236.0
2.3347	380.006000762	229.0
2.345	380.651979591	274.0
2.3552	381.289351605	278.0
2.3654	381.924408306	300.0
2.3757	382.563350141	299.0
2.3859	383.19377892	268.0
2.3962	383.828064521	289.0
2.4064	384.453899106	320.0
2.4166	385.077460287	324.0
2.4269	385.704836275	350.0
2.4371	386.323853308	355.0
2.4474	386.946657347	364.0
2.4576	387.561163347	396.0
2.4678	388.173437095	395.0
2.4781	388.789456597	451.0
2.4883	389.397268453	461.0
2.4986	390.008798765	422.0
2.5088	390.612181245	459.0
2.519	391.213371881	452.0
2.5293	391.818240466	499.0
2.5395	392.415049977	468.0
2.5498	393.015510634	475.0
2.56	393.607970948	539.0
2.5702	394.198279093	482.0
2.5805	394.79219861	527.0
2.5907	395.378204935	520.0
2.601	395.967796316	527.0
2.6112	396.549532171	583.0
2.6214	397.129154815	578.0
2.6317	397.71232346	609.0
2.6419	398.287722154	598.0
2.6522	398.866641009	602.0
2.6624	399.437846535	609.0
2.6726	400.006977102	591.0
2.6829	400.579589483	620.0
2.6931	401.144572561	632.0
2.7034	401.713012078	697.0
2.7136	402.273877891	616.0
2.7238	402.832706305	622.0
2.7341	403.394953506	604.0
2.7443	403.949709507	643.0
2.7546	404.50785938	642.0
2.7648	405.058572644	657.0
2.775	405.60728539	639.0
2.7853	406.159355037	635.0
2.7955	406.704069087	613.0
2.8058	407.252115574	642.0
2.816	407.792860067	604.0
2.8262	408.331640254	573.0
2.8365	408.873716577	587.0
2.8467	409.40857045	636.0
2.857	409.946696439	588.0
2.8672	410.47765261	554.0
2.8774	411.006680033	545.0
2.8877	411.538943927	546.0
2.8979	412.064116108	528.0
2.9082	412.592501175	505.0
2.9184	413.11384621	497.0
2.9286	413.633297409	460.0
2.9389	414.155926494	530.0
2.9491	414.671592237	439.0
2.9594	415.190412708	416.0
2.9696	415.702320582	439.0
2.9798	416.212368902	462.0
2.9901	416.725537582	435.0
3.0003	417.231868969	385.0
3.0106	417.741297978	382.0
3.0208	418.243939519	363.0
3.031	418.744755166	346.0
3.0413	419.248634692	349.0
3.0515	419.745800688	341.0
3.0618	420.246008235	358.0
3.072	420.739551178	323.0
3.0822	421.231301279	346.0
3.0925	421.726059797	322.0
3.1027	422.214226311	338.0
3.113	422.705379319	347.0
3.1232	423.189988363	359.0
3.1334	423.672837018	340.0
3.1437	424.158639632	338.0
3.1539	424.63796957	352.0
3.1642	425.12023194	343.0
3.1744	425.596068802	360.0
3.1846	426.070177141	333.0
3.1949	426.547185968	345.0
3.2051	427.017839284	375.0
3.2154	427.491371951	365.0
3.2256	427.958595421	390.0
3.2358	428.424121658	406.0
3.2461	428.89249588	410.0
3.2563	429.354629634	385.0
3.2666	429.819590619	395.0
3.2768	430.278356614	416.0
3.287	430.735456098	439.0
3.2973	431.195352013	403.0
3.3075	431.649120424	435.0
3.3178	432.105664888	455.0
3.328	432.556126501	402.0
3.3382	433.004951769	448.0
3.3485	433.456522849	468.0
3.3587	433.902077342	524.0
3.369	434.350357637	529.0
3.3792	434.79266519	525.0
3.3894	435.233366019	503.0
3.3997	435.676762956	502.0
3.4099	436.114252216	519.0
3.4202	436.554417936	493.0
3.4304	436.988719031	523.0
3.4406	437.421442485	535.0
3.4509	437.856813245	560.0
3.4611	438.286383265	544.0
3.4714	438.718581297	572.0
3.4816	439.145020862	562.0
3.4918	439.569911346	605.0
3.5021	439.997401213	606.0
3.5123	440.419195344	618.0
3.5226	440.843569916	613.0
3.5328	441.262290258	634.0
3.543	441.679489559	663.0
3.5533	442.099241191	612.0
3.5635	442.513400188	613.0
3.5738	442.930092917	634.0
3.584	443.341233766	746.0
3.5942	443.750881107	604.0
3.6045	444.163034578	598.0
3.6147	444.56969665	648.0
3.625	444.978846588	614.0
3.6352	445.382545145	667.0
3.6454	445.784777229	678.0
3.6557	446.189470077	625.0
3.6659	446.588770929	674.0
3.6762	446.990514614	666.0
3.6864	447.386905595	691.0
3.6966	447.781856649	632.0
3.7069	448.179223924	682.0
3.7171	448.571296806	604.0
3.7274	448.965768302	665.0
3.7376	449.354983986	656.0
3.7478	449.742785808	642.0
3.7581	450.132960114	680.0
3.7683	450.517935864	642.0
3.7786	450.905266808	625.0
3.7888	451.28743708	617.0
3.799	451.668219082	617.0
3.8093	452.051330623	620.0
3.8195	452.42933771	603.0
3.8298	452.809657358	579.0
3.84	453.184909751	663.0
3.8502	453.558799003	615.0
3.8605	453.934975626	554.0
3.8707	454.306140193	585.0
3.881	454.679575461	578.0
3.8912	455.048035198	591.0
3.9014	455.41515647	611.0
3.9117	455.784523708	526.0
3.9219	456.148969615	557.0
3.9322	456.515645121	555.0
3.9424	456.877435161	581.0
3.9526	457.237910963	538.0
3.9629	457.600592076	584.0
3.9731	457.958440943	552.0
3.9834	458.318479048	524.0
3.9936	458.673720122	557.0
4.0038	459.027670749	558.0
4.0141	459.383786767	563.0
4.0243	459.735158009	504.0
4.0346	460.088678862	550.0
4.0448	460.437489517	539.0
4.055	460.785033084	562.0
4.0653	461.134702845	512.0
4.0755	461.479713718	487.0
4.0858	461.82683529	511.0
4.096	462.169331927	504.0
4.1062	462.510584412	498.0
4.1165	462.853924603	514.0
4.1267	463.19269024	515.0
4.137	463.533528369	548.0
4.1472	463.86982528	517.0
4.1574	464.204900561	545.0
4.1677	464.542025758	529.0
4.1779	464.874659207	569.0
4.1882	465.209327633	536.0
4.1984	465.539537044	543.0
4.2086	465.868546939	556.0
4.2189	466.199569642	540.0
4.2291	466.526181905	512.0
4.2394	466.854792309	519.0
4.2496	467.179024414	514.0
4.2598	467.502078715	543.0
4.2701	467.827109389	525.0
4.2803	468.14780946	489.0
4.2906	468.470471501	533.0
4.3008	468.788834498	509.0
4.311	469.10604101	503.0
4.3213	469.425188121	536.0
4.3315	469.740083019	517.0
4.3418	470.056904373	576.0
4.352	470.369504501	546.0
4.3622	470.68096908	535.0
4.3725	470.994339129	560.0
4.3827	471.303533936	569.0
4.393	471.614620328	550.0
4.4032	471.921561905	532.0
4.4134	472.227388488	589.0
4.4237	472.535086049	564.0
4.4339	472.838683947	532.0
4.4442	473.144139188	513.0
4.4544	473.445524643	554.0
4.4646	473.745815286	474.0
4.4749	474.04794304	526.0
4.4851	474.346045341	536.0
4.4954	474.645971365	556.0
4.5056	474.941901271	505.0
4.5158	475.236756184	532.0
4.5261	475.533414953	507.0
4.5363	475.826121136	534.0
4.5466	476.12061803	553.0
4.5568	476.411191142	525.0
4.567	476.70070872	507.0
4.5773	476.991997501	491.0
4.5875	477.279405244	486.0
4.5978	477.568571284	488.0
4.608	477.853884568	544.0
4.6182	478.138161425	556.0
4.6285	478.424177424	548.0
4.6387	478.706382637	479.0
4.649	478.990314319	493.0
4.6592	479.270462987	536.0
4.6694	479.549593988	512.0
4.6797	479.83043265	528.0
4.6899	480.107529508	493.0
4.7002	480.386321582	525.0
4.7104	480.661399121	518.0
4.7206	480.935477414	513.0
4.7309	481.211232457	513.0
4.7411	481.483313428	509.0
4.7514	481.75705893	451.0
4.7616	482.027157135	491.0
4.7718	482.296274182	451.0
4.7821	482.567037627	519.0
4.7923	482.834193508	511.0
4.8026	483.102983788	503.0
4.8128	483.368192793	518.0
4.823	483.632438401	473.0
4.8333	483.898300604	453.0
4.8435	484.160620545	459.0
4.8538	484.4245453	472.0
4.864	484.684953608	480.0
4.8742	484.944415957	420.0
4.8845	485.205465638	461.0
4.8947	485.463037178	487.0
4.905	485.722184483	435.0
4.9152	485.977878992	439.0
4.9254	486.232644667	503.0
4.9357	486.488968941	455.0
4.9459	486.741878033	452.0
4.9562	486.996334366	459.0
4.9664	487.247400405	466.0
4.9766	487.497554423	481.0
4.9869	487.749238827	423.0
4.9971	487.997569869	464.0
5.0074	488.247420144	428.0
5.0176	488.493941495	435.0
5.0278	488.739567334	417.0
5.0381	488.986695856	442.0
5.0483	489.230531718	452.0
5.0586	489.475859312	459.0
5.0688	489.717918241	454.0
5.079	489.959097868	468.0
5.0893	490.201752978	427.0
5.0995	490.441175029	442.0
5.1098	490.68206181	467.0
5.12	490.919739094	464.0
5.1302	491.156552992	463.0
5.1405	491.394815665	427.0
5.1507	491.629903803	454.0
5.161	491.866430157	436.0
5.1712	492.09980511	431.0
5.1814	492.332332306	423.0
5.1917	492.566282052	470.0
5.2019	492.797114726	477.0
5.2122	493.029359583	451.0
5.2224	493.258510085	454.0
5.2326	493.486828175	432.0
5.2429	493.716543064	414.0
5.2531	493.943197307	449.0
5.2634	494.171238168	448.0
5.2736	494.396240687	434.0
5.2838	494.620425863	444.0
5.2941	494.845982554	410.0
5.3043	495.068534	456.0
5.3146	495.292446965	467.0
5.3248	495.513376587	473.0
5.335	495.73350366	426.0
5.3453	495.954977422	475.0
5.3555	496.173500338	428.0
5.3658	496.393360129	427.0
5.376	496.610290579	477.0
5.3862	496.826433008	467.0
5.3965	497.043897748	497.0
5.4067	497.258465058	436.0
5.417	497.474345043	447.0
5.4272	497.687348712	475.0
5.4374	497.899578625	469.0
5.4477	498.113106914	457.0
5.4579	498.32379022	462.0
5.4682	498.535762439	466.0
5.4784	498.744910409	436.0
5.4886	498.953298628	496.0
5.4989	499.162961721	459.0
5.5091	499.369831329	491.0
5.5194	499.57796652	463.0
5.5296	499.783328584	459.0
5.5398	499.987944651	416.0
5.5501	500.193812514	469.0
5.5603	500.396937459	430.0
5.5706	500.601305077	473.0
5.5808	500.802949767	473.0
5.591	501.003861963	434.0
5.6013	501.206003295	414.0
5.6115	501.405451361	427.0
5.6218	501.606119605	428.0
5.632	501.804114211	418.0
5.6422	502.001389582	428.0
5.6525	502.19987184	415.0
5.6627	502.395709584	430.0
5.673	502.592745419	435.0
5.6832	502.787156013	418.0
5.6934	502.980860391	397.0
5.7037	503.17574981	389.0
5.7139	503.368042584	381.0
5.7242	503.561511763	421.0
5.7344	503.752403221	403.0
5.7446	503.942601247	420.0
5.7549	504.133962862	414.0
5.7651	504.322774837	376.0
5.7754	504.512741921	378.0
5.7856	504.700177944	381.0
5.7958	504.886933089	381.0
5.8061	505.074830759	390.0
5.8163	505.260224942	355.0
5.8266	505.446753324	394.0
5.8368	505.630796463	367.0
5.847	505.814171047	349.0
5.8573	505.998667476	337.0
5.8675	506.180705734	362.0
5.8778	506.363857661	313.0
5.888	506.544569331	329.0
5.8982	506.724624548	325.0
5.9085	506.905781303	322.0
5.9187	507.084524384	330.0
5.929	507.264360975	302.0
5.9392	507.441801481	295.0
5.9494	507.618597417	319.0
5.9597	507.796474951	316.0
5.9699	507.971982503	307.0
5.9802	508.14856377	329.0
5.9904	508.322792325	278.0
6.0006	508.496387979	298.0
6.0109	508.671045651	265.0
6.0211	508.843376241	270.0
6.0314	509.016761111	286.0
6.0416	509.187835857	278.0
6.0518	509.358289158	247.0
6.0621	509.529785254	232.0
6.0723	509.698996391	230.0
6.0826	509.869242723	230.0
6.0928	510.037220749	221.0
6.103	510.204588578	219.0
6.1133	510.372980326	208.0
6.1235	510.539128477	211.0
6.1338	510.706293085	205.0
6.144	510.871230445	212.0
6.1542	511.035568655	214.0
6.1645	511.200912249	177.0
6.1747	511.364052858	197.0
6.185	511.528191525	168.0
6.1952	511.690143261	186.0
6.2054	511.851506693	170.0
6.2157	512.013857309	167.0
6.2259	512.174044818	217.0
6.2362	512.335212318	159.0
6.2464	512.494232475	179.0
6.2566	512.652674976	140.0
6.2669	512.812086792	156.0
6.2771	512.969374657	160.0
6.2874	513.127624773	163.0
6.2976	513.283766416	123.0
6.3078	513.43934086	143.0
6.3181	513.595867073	118.0
6.3283	513.750307781	120.0
6.3386	513.905693323	115.0
6.3488	514.059008558	112.0
6.359	514.211766861	123.0
6.3693	514.365459705	118.0
6.3795	514.517104795	103.0
6.3898	514.669677615	126.0
6.4	514.820217604	105.0
6.4102	514.970210743	103.0
6.4205	515.121121506	99.0
6.4307	515.270021583	91.0
6.441	515.419832597	87.0
6.4512	515.567647577	77.0
6.4614	515.714925605	78.0
6.4717	515.863104647	69.0
6.4819	516.009309399	83.0
6.4922	516.1564086	82.0
6.5024	516.301547897	65.0
6.5126	516.446159963	66.0
6.5229	516.591656733	78.0
6.5331	516.73521495	77.0
6.5434	516.879651425	55.0
6.5536	517.022163474	70.0
6.5638	517.164157835	62.0
6.5741	517.307020886	61.0
6.5843	517.447980475	50.0
6.5946	517.589802424	57.0
6.6048	517.729734782	41.0
6.615	517.869158823	55.0
6.6253	518.009435829	50.0
6.6355	518.14784383	41.0
6.6458	518.287098579	51.0
6.656	518.424497943	43.0
6.6662	518.561398191	47.0
6.6765	518.699135963	45.0
6.6867	518.835038562	32.0
6.697	518.971772583	31.0
6.7072	519.106684804	40.0
6.7174	519.241106943	37.0
6.7277	519.376351446	37.0
6.7379	519.509793996	20.0
6.7482	519.644052917	27.0
6.7584	519.776523015	23.0
6.7686	519.908511903	26.0
6.7789	520.04130827	27.0
6.7891	520.1723353	35.0
6.7994	520.304163925	30.0
6.8096	520.434236107	24.0
6.8198	520.56383579	23.0
6.8301	520.694228335	32.0
6.8403	520.822883571	24.0
6.8506	520.952325891	15.0
6.8608	521.080043564	15.0
6.871	521.20729729	24.0
6.8813	521.335329525	19.0
6.8915	521.461655901	20.0
6.9018	521.588755112	16.0
6.912	521.714160895	16.0
6.9222	521.83911113	17.0
6.9325	521.964825782	16.0
6.9427	522.088865452	13.0
6.953	522.213663969	11.0
6.9632	522.336799711	16.0
6.9734	522.459488151	12.0
6.9837	522.582927171	13.0
6.9939	522.704721529	7.0
7.0042	522.827260998	12.0
7.0144	522.948167791	13.0
7.0246	523.068635378	20.0
7.0349	523.189839958	11.0
7.0451	523.309429648	11.0
7.0554	523.429750961	12.0
7.0656	523.548469152	14.0
7.0758	523.666756087	10.0
7.0861	523.785766675	10.0
7.0963	523.903191605	12.0
7.1066	524.021334914	12.0
7.1168	524.137904119	7.0
7.127	524.254049876	8.0
7.1373	524.370906186	3.0
7.1475	524.486205541	5.0
7.1578	524.602210271	12.0
7.168	524.716669392	8.0
7.1782	524.830712729	7.0
7.1885	524.945453757	4.0
7.1987	525.058666013	14.0
7.209	525.172570876	10.0
7.2192	525.284958108	6.0
7.2294	525.396937082	3.0
7.2397	525.509601118	8.0
7.2499	525.620764055	6.0
7.2602	525.732607062	6.0
7.2704	525.842959909	5.0
7.2806	525.952911889	4.0
7.2909	526.06353653	4.0
7.3011	526.172687244	5.0
7.3114	526.282505717	2.0
7.3216	526.390861005	5.0
7.3318	526.498822682	8.0
7.3421	526.607444844	7.0
7.3523	526.714619759	9.0
7.3626	526.822450347	7.0
7.3728	526.928844234	6.0
7.383	527.034851636	4.0
7.3933	527.141507567	3.0
7.4035	527.246742449	3.0
7.4138	527.352621134	7.0
7.424	527.457089126	8.0
7.4342	527.561177627	9.0
7.4445	527.665902919	2.0
7.4547	527.769232885	1.0
7.465	527.873195001	6.0
7.4752	527.975771958	11.0
7.4854	528.077976295	8.0
7.4957	528.180805896	4.0
7.5059	528.282265427	6.0
7.5162	528.384345666	1.0
7.5264	528.48506582	9.0
7.5366	528.585420099	5.0
7.5469	528.686388323	6.0
7.5571	528.786011278	1.0
7.5674	528.886243705	3.0
7.5776	528.985140667	2.0
7.5878	529.083678376	5.0
7.5981	529.182818917	3.0
7.6083	529.280638541	7.0
7.6186	529.379056604	5.0
7.6288	529.476163376	7.0
7.639	529.572917399	4.0
7.6493	529.670263341	5.0
7.6595	529.766312277	4.0
7.6698	529.862948819	3.0
7.68	529.958297807	1.0
7.6902	530.05330043	7.0
7.7005	530.148884259	2.0
7.7107	530.243194559	3.0
7.721	530.338081828	3.0
7.7312	530.43170485	2.0
7.7414	530.524987778	4.0
7.7517	530.618841389	2.0
7.7619	530.711444525	2.0
7.7722	530.804614187	2.0
7.7824	530.896542486	2.0
7.7926	530.988136846	4.0
7.8029	531.08029156	2.0
