TL-DOS Lehrstuhlversuch
detector=R1408201
job_number=2015-10-22-014
irradiation_dose [mSv]=3.0

[BEGIN DATA]
time [sec] 	 temperature [K] 	 photoncount 
0.0	223.391392365	0.0
0.0102	225.074614137	0.0
0.0205	226.765616015	0.0
0.0307	228.431607262	0.0
0.041	230.105298973	1.0
0.0512	231.754236077	1.0
0.0614	233.394752859	2.0
0.0717	235.042852357	2.0
0.0819	236.666575769	1.0
0.0922	238.297804276	1.0
0.1024	239.904906225	3.0
0.1126	241.503801484	2.0
0.1229	243.110087078	0.0
0.1331	244.69261503	1.0
0.1434	246.282457667	1.0
0.1536	247.84878586	1.0
0.1638	249.407115574	2.0
0.1741	250.972648124	4.0
0.1843	252.515025787	1.0
0.1946	254.064532553	0.0
0.2048	255.59112146	1.0
0.215	257.109914818	1.0
0.2253	258.635728268	1.0
0.2355	260.138974293	1.0
0.2458	261.64916855	0.0
0.256	263.137026396	1.0
0.2662	264.617286473	0.0
0.2765	266.104388536	0.0
0.2867	267.569495733	3.0
0.297	269.041374877	0.0
0.3072	270.491484307	0.0
0.3174	271.934188731	0.0
0.3277	273.383561553	0.0
0.3379	274.81149754	0.0
0.3482	276.246033663	0.0
0.3584	277.659352391	0.0
0.3686	279.065453986	0.0
0.3789	280.478054795	0.0
0.3891	281.869762642	0.0
0.3994	283.267903174	0.0
0.4096	284.645364617	0.0
0.4198	286.015792032	0.0
0.4301	287.392553771	1.0
0.4403	288.748952622	0.0
0.4506	290.111620954	0.0
0.4608	291.454134846	0.0
0.471	292.789793171	0.0
0.4813	294.13162511	0.0
0.4915	295.45361079	0.0
0.5018	296.781706887	1.0
0.512	298.090159882	0.0
0.5222	299.391931242	0.0
0.5325	300.699719587	0.0
0.5427	301.98816519	0.0
0.553	303.282566183	1.0
0.5632	304.55782244	0.0
0.5734	305.826566581	0.0
0.5837	307.10117505	0.0
0.5939	308.356931521	0.0
0.6042	309.61849229	0.0
0.6144	310.861394042	1.0
0.6246	312.097948897	0.0
0.6349	313.340219296	2.0
0.6451	314.564115992	0.0
0.6554	315.793669723	0.0
0.6656	317.005037836	1.0
0.6758	318.210220079	0.0
0.6861	319.420972857	0.0
0.6963	320.61381809	1.0
0.7066	321.812176835	2.0
0.7168	322.992811349	0.0
0.727	324.167416934	2.0
0.7373	325.347451723	0.0
0.7475	326.510033301	4.0
0.7578	327.677988506	2.0
0.768	328.828669162	1.0
0.7782	329.973473848	0.0
0.7885	331.123569996	1.0
0.7987	332.256655736	1.0
0.809	333.39497877	3.0
0.8192	334.516465526	3.0
0.8294	335.632225392	4.0
0.8397	336.75314247	7.0
0.8499	337.857480711	5.0
0.8602	338.966923371	1.0
0.8704	340.059956905	7.0
0.8806	341.147408847	6.0
0.8909	342.239887157	10.0
0.9011	343.316207251	8.0
0.9114	344.39750226	7.0
0.9216	345.46280446	6.0
0.9318	346.522666677	13.0
0.9421	347.587427738	10.0
0.9523	348.636440534	15.0
0.9626	349.690302026	16.0
0.9728	350.728576462	20.0
0.983	351.761548933	12.0
0.9933	352.799295959	8.0
1.0035	353.821694269	18.0
1.0138	354.848818259	17.0
1.024	355.860750652	35.0
1.0342	356.867515596	20.0
1.0445	357.87893396	31.0
1.0547	358.87539302	39.0
1.065	359.876457865	29.0
1.0752	360.862716538	38.0
1.0854	361.843938866	53.0
1.0957	362.829696552	48.0
1.1059	363.800874466	50.0
1.1162	364.776541312	76.0
1.1264	365.737777633	70.0
1.1366	366.694105386	75.0
1.1469	367.654853431	74.0
1.1571	368.601391607	95.0
1.1674	369.552304826	87.0
1.1776	370.489153637	108.0
1.1878	371.421218415	104.0
1.1981	372.357591337	132.0
1.2083	373.280114909	134.0
1.2186	374.206902525	125.0
1.2288	375.119982561	176.0
1.239	376.028399939	156.0
1.2493	376.94101616	181.0
1.2595	377.840134403	192.0
1.2698	378.743408505	231.0
1.28	379.633322803	241.0
1.2902	380.51869274	262.0
1.3005	381.408154991	256.0
1.3107	382.284461719	306.0
1.321	383.16481887	322.0
1.3312	384.032155168	309.0
1.3414	384.895062399	373.0
1.3517	385.761958118	403.0
1.3619	386.616032083	427.0
1.3722	387.474053708	420.0
1.3824	388.319384831	466.0
1.3926	389.160399258	497.0
1.4029	390.00530098	500.0
1.4131	390.83770625	482.0
1.4234	391.673959023	579.0
1.4336	392.497843264	637.0
1.4438	393.317520328	602.0
1.4541	394.140986063	623.0
1.4643	394.952272393	647.0
1.4746	395.767308611	697.0
1.4848	396.5702901	710.0
1.495	397.369171151	769.0
1.5053	398.171744751	744.0
1.5155	398.962447949	787.0
1.5258	399.756805897	836.0
1.536	400.539414956	806.0
1.5462	401.318027609	847.0
1.5565	402.100239129	893.0
1.5667	402.870881409	850.0
1.577	403.645085715	838.0
1.5872	404.407839213	867.0
1.5974	405.166697698	829.0
1.6077	405.929063743	871.0
1.6179	406.680154071	854.0
1.6282	407.434716053	827.0
1.6384	408.178117745	800.0
1.6486	408.917723244	778.0
1.6589	409.660747313	800.0
1.6691	410.392781741	722.0
1.6794	411.128199744	740.0
1.6896	411.852740604	666.0
1.6998	412.573581585	675.0
1.7101	413.297754403	603.0
1.7203	414.011216398	624.0
1.7306	414.727976124	589.0
1.7408	415.43413467	581.0
1.751	416.136687207	529.0
1.7613	416.842487048	492.0
1.7715	417.537847811	502.0
1.7818	418.236422638	468.0
1.792	418.924665248	434.0
1.8022	419.609393336	411.0
1.8125	420.297286342	445.0
1.8227	420.975005119	387.0
1.833	421.655856416	351.0
1.8432	422.326637634	351.0
1.8534	422.993993498	379.0
1.8637	423.664433982	360.0
1.8739	424.324958368	415.0
1.8842	424.988535797	386.0
1.8944	425.642298637	379.0
1.9046	426.292723027	384.0
1.9149	426.946153776	427.0
1.9251	427.589920009	434.0
1.9354	428.236661828	433.0
1.9456	428.873838061	462.0
1.9558	429.507760545	468.0
1.9661	430.144613114	488.0
1.9763	430.772046365	471.0
1.9866	431.402379708	491.0
1.9968	432.023390154	473.0
2.007	432.641229401	510.0
2.0173	433.261924395	552.0
2.0275	433.873439047	547.0
2.0378	434.487780214	540.0
2.048	435.093035015	545.0
2.0582	435.695199073	584.0
2.0685	436.300146424	613.0
2.0787	436.896146349	590.0
2.089	437.494901076	607.0
2.0992	438.084799968	626.0
2.1094	438.671686532	640.0
2.1197	439.261285774	590.0
2.1299	439.842164595	671.0
2.1402	440.425728326	648.0
2.1504	441.000660903	664.0
2.1606	441.572657578	676.0
2.1709	442.147298108	665.0
2.1811	442.713439463	641.0
2.1914	443.282197608	677.0
2.2016	443.842543581	686.0
2.2118	444.400028138	674.0
2.2221	444.960089473	690.0
2.2323	445.511867265	713.0
2.2426	446.066195457	678.0
2.2528	446.612324901	694.0
2.263	447.155665527	640.0
2.2733	447.701517556	700.0
2.2835	448.239296203	706.0
2.2938	448.779560544	677.0
2.304	449.311834148	685.0
2.3142	449.841389688	704.0
2.3245	450.373392914	675.0
2.3347	450.897527588	665.0
2.345	451.424084892	646.0
2.3552	451.942854191	649.0
2.3654	452.458974386	659.0
2.3757	452.977480168	608.0
2.3859	453.48831703	629.0
2.3962	454.001515057	633.0
2.4064	454.507122669	588.0
2.4166	455.010148388	644.0
2.4269	455.515499168	605.0
2.4371	456.013375597	574.0
2.4474	456.513553286	598.0
2.4576	457.006333136	594.0
2.4678	457.496596598	568.0
2.4781	457.989126132	607.0
2.4883	458.474370946	565.0
2.4986	458.961858636	558.0
2.5088	459.442136177	537.0
2.519	459.919961173	584.0
2.5293	460.399994748	541.0
2.5395	460.872928425	564.0
2.5498	461.348048073	506.0
2.56	461.8161405	546.0
2.5702	462.281842606	548.0
2.5805	462.749697258	533.0
2.5907	463.210632143	509.0
2.601	463.673697538	556.0
2.6112	464.129914	530.0
2.6214	464.583800786	565.0
2.6317	465.039785506	563.0
2.6419	465.489026019	536.0
2.6522	465.94034299	550.0
2.6624	466.384984793	526.0
2.6726	466.827356025	519.0
2.6829	467.271771964	552.0
2.6931	467.709614804	541.0
2.7034	468.149481419	529.0
2.7136	468.582842222	551.0
2.7238	469.013990062	539.0
2.7341	469.447130732	557.0
2.7443	469.873865068	556.0
2.7546	470.302571835	550.0
2.7648	470.724937849	510.0
2.775	471.145147044	527.0
2.7853	471.567298509	510.0
2.7955	471.983206176	512.0
2.8058	472.401036231	516.0
2.816	472.812686404	539.0
2.8262	473.222234478	554.0
2.8365	473.633675546	507.0
2.8467	474.039031227	582.0
2.857	474.446260523	509.0
2.8672	474.847466726	508.0
2.8774	475.246624163	489.0
2.8877	475.647626566	508.0
2.8979	476.042697975	521.0
2.9082	476.439595464	519.0
2.9184	476.830622671	479.0
2.9286	477.219653092	499.0
2.9389	477.61048167	513.0
2.9491	477.995529729	502.0
2.9594	478.382357538	477.0
2.9696	478.763464	482.0
2.9798	479.142624337	475.0
2.9901	479.52353721	503.0
3.0003	479.898816221	443.0
3.0106	480.275829828	477.0
3.0208	480.647267246	473.0
3.031	481.016807912	453.0
3.0413	481.388056651	432.0
3.0515	481.753814464	447.0
3.0618	482.121262866	457.0
3.072	482.483276551	463.0
3.0822	482.843441607	465.0
3.0925	483.205271401	440.0
3.1027	483.561749579	477.0
3.113	483.919875454	465.0
3.1232	484.272704495	437.0
3.1334	484.62373181	435.0
3.1437	484.976381626	420.0
3.1539	485.323815603	469.0
3.1642	485.672855472	414.0
3.1744	486.016732894	440.0
3.1846	486.358854301	450.0
3.1949	486.702557044	433.0
3.2051	487.04117628	480.0
3.2154	487.381360664	444.0
3.2256	487.716513578	425.0
3.2358	488.049955028	425.0
3.2461	488.384937696	450.0
3.2563	488.714965828	409.0
3.2666	489.0465194	467.0
3.2768	489.373169155	456.0
3.287	489.698150868	434.0
3.2973	490.024634696	425.0
3.3075	490.34628969	425.0
3.3178	490.669431422	407.0
3.328	490.987793752	409.0
3.3382	491.30453036	415.0
3.3485	491.622730972	411.0
3.3587	491.936225263	446.0
3.369	492.251168571	399.0
3.3792	492.561453736	403.0
3.3894	492.870154424	429.0
3.3997	493.180281974	431.0
3.4099	493.485822607	369.0
3.4202	493.792775494	439.0
3.4304	494.095188419	413.0
3.4406	494.396057068	370.0
3.4509	494.698316377	413.0
3.4611	494.996105143	464.0
3.4714	495.295270334	439.0
3.4816	495.590010746	422.0
3.4918	495.883246061	402.0
3.5021	496.177836755	421.0
3.5123	496.468070327	413.0
3.5226	496.759645403	405.0
3.5328	497.046907961	441.0
3.543	497.332703608	414.0
3.5533	497.619820246	401.0
3.5635	497.902690308	418.0
3.5738	498.186867838	438.0
3.584	498.466842262	411.0
3.5942	498.745386993	419.0
3.6045	499.025219199	419.0
3.6147	499.300912569	450.0
3.625	499.577880236	422.0
3.6352	499.850751434	447.0
3.6454	500.122229211	389.0
3.6557	500.394961799	394.0
3.6659	500.663660557	388.0
3.6762	500.933601282	383.0
3.6864	501.19954947	412.0
3.6966	501.464139589	435.0
3.7069	501.729952683	380.0
3.7171	501.99183429	447.0
3.7274	502.254926353	402.0
3.7376	502.514127174	360.0
3.7478	502.772004381	409.0
3.7581	503.031073536	382.0
3.7683	503.286310949	352.0
3.7786	503.542728108	375.0
3.7888	503.795352749	365.0
3.799	504.046687358	334.0
3.8093	504.299183674	382.0
3.8195	504.547945463	385.0
3.8298	504.797857067	348.0
3.84	505.044072372	351.0
3.8502	505.289030376	364.0
3.8605	505.535120612	341.0
3.8707	505.77757107	335.0
3.881	506.02114217	344.0
3.8912	506.261110751	352.0
3.9014	506.499853929	313.0
3.9117	506.739700614	324.0
3.9219	506.975999866	323.0
3.9322	507.213391328	316.0
3.9424	507.447271671	283.0
3.9526	507.679957699	301.0
3.9629	507.913719238	295.0
3.9731	508.144023345	281.0
3.9834	508.375391953	300.0
3.9936	508.603338521	241.0
4.0038	508.830121077	286.0
4.0141	509.057951856	288.0
4.0243	509.282412921	286.0
4.0346	509.50791148	249.0
4.0448	509.73007482	223.0
4.055	509.951103679	241.0
4.0653	510.173154167	224.0
4.0755	510.391920435	239.0
4.0858	510.611697873	230.0
4.096	510.828224711	238.0
4.1062	511.043645851	196.0
4.1165	511.260062699	201.0
4.1267	511.473278652	203.0
4.137	511.687480121	187.0
4.1472	511.89851346	197.0
4.1574	512.108469153	199.0
4.1677	512.319395294	191.0
4.1779	512.527201748	148.0
4.1882	512.735968715	177.0
4.1984	512.941647931	170.0
4.2086	513.146276842	155.0
4.2189	513.35185158	160.0
4.2291	513.55438578	151.0
4.2394	513.757856124	136.0
4.2496	513.958317055	150.0
4.2598	514.15775433	110.0
4.2701	514.358113434	124.0
4.2803	514.555509143	116.0
4.2906	514.753817244	106.0
4.3008	514.949192285	113.0
4.311	515.14356964	102.0
4.3213	515.338845437	99.0
4.3315	515.531233022	104.0
4.3418	515.724509852	105.0
4.352	515.914928036	100.0
4.3622	516.104373846	92.0
4.3725	516.294695304	78.0
4.3827	516.482201827	84.0
4.393	516.670575034	67.0
4.4032	516.856162121	74.0
4.4134	517.040801506	78.0
4.4237	517.226294321	53.0
4.4339	517.409043619	63.0
4.4442	517.592637613	58.0
4.4544	517.773516173	73.0
4.4646	517.953471075	57.0
4.4749	518.134257755	58.0
4.4851	518.312370524	48.0
4.4954	518.491306557	47.0
4.5056	518.667596051	50.0
4.5158	518.84298532	39.0
4.5261	519.019185264	39.0
4.5363	519.192779137	28.0
4.5466	519.367175388	51.0
4.5568	519.538992244	33.0
4.567	519.709931714	41.0
4.5773	519.881661293	38.0
4.5875	520.050850919	26.0
4.5978	520.220822565	37.0
4.608	520.388280258	37.0
4.6182	520.554882826	35.0
4.6285	520.722255457	27.0
4.6387	520.887152576	30.0
4.649	521.052811874	19.0
4.6592	521.216021001	20.0
4.6694	521.378396698	24.0
4.6797	521.541522921	22.0
4.6899	521.702236437	16.0
4.7002	521.863692796	27.0
4.7104	522.022761148	16.0
4.7206	522.181017214	13.0
4.7309	522.340004764	12.0
4.7411	522.496640821	13.0
4.7514	522.654000873	21.0
4.7616	522.809033504	20.0
4.7718	522.963274458	13.0
4.7821	523.118228338	10.0
4.7923	523.270890384	21.0
4.8026	523.424258057	11.0
4.8128	523.575357357	13.0
4.823	523.725685067	10.0
4.8333	523.876707614	9.0
4.8435	524.025496474	17.0
4.8538	524.174973059	8.0
4.864	524.322238822	6.0
4.8742	524.46875257	4.0
4.8845	524.615943526	11.0
4.8947	524.760957467	8.0
4.905	524.906641683	10.0
4.9152	525.050171169	4.0
4.9254	525.192967719	12.0
4.9357	525.336424297	15.0
4.9459	525.477759091	9.0
4.9562	525.619747156	13.0
4.9664	525.759635157	9.0
4.9766	525.898808819	5.0
4.9869	526.038625762	10.0
4.9971	526.176374753	8.0
5.0074	526.314760441	12.0
5.0176	526.451099347	3.0
5.0278	526.586742035	10.0
5.0381	526.723011685	5.0
5.0483	526.857265849	3.0
5.0586	526.992140557	8.0
5.0688	527.12502041	5.0
5.079	527.25722171	7.0
5.0893	527.390034065	6.0
5.0995	527.520882069	5.0
5.1098	527.652334873	6.0
5.12	527.781843434	2.0
5.1302	527.910690657	7.0
5.1405	528.040133432	5.0
5.1507	528.167661693	4.0
5.161	528.29577941	3.0
5.1712	528.422002211	4.0
5.1814	528.547580454	7.0
5.1917	528.673739139	2.0
5.2019	528.798031883	6.0
5.2122	528.922899127	3.0
5.2224	529.045919532	5.0
5.2326	529.168311731	5.0
5.2429	529.291269646	5.0
5.2531	529.412408961	3.0
5.2634	529.5341082	3.0
5.2736	529.654007457	1.0
5.2838	529.773294445	2.0
5.2941	529.893132797	4.0
5.3043	530.011198689	3.0
5.3146	530.129810299	2.0
5.3248	530.246667593	2.0
5.335	530.362928154	2.0
5.3453	530.479726088	4.0
5.3555	530.594796532	5.0
5.3658	530.710398849	4.0
5.376	530.824291359	7.0
5.3862	530.937602275	3.0
5.3965	531.051436931	2.0
5.4067	531.163587925	6.0
5.417	531.276257298	0.0
5.4272	531.387260243	2.0
5.4374	531.497696349	4.0
5.4477	531.608642909	0.0
5.4579	531.717948521	2.0
5.4682	531.827759361	4.0
5.4784	531.935946052	3.0
5.4886	532.043580286	2.0
5.4989	532.151712022	2.0
5.5091	532.258244444	2.0
5.5194	532.365269275	3.0
5.5296	532.470711163	3.0
5.5398	532.575614611	0.0
5.5501	532.681002939	1.0
5.5603	532.784832528	8.0
5.5706	532.889142034	2.0
5.5808	532.991908758	3.0
5.591	533.094150702	3.0
5.6013	533.196865224	5.0
5.6115	533.298060555	2.0
5.6218	533.399723626	3.0
5.632	533.499883058	1.0
5.6422	533.599531023	1.0
5.6525	533.699639577	2.0
5.6627	533.798267483	0.0
5.673	533.897351262	3.0
5.6832	533.99496955	3.0
5.6934	534.092089349	2.0
5.7037	534.18965805	4.0
5.7139	534.285783669	3.0
5.7242	534.382353595	2.0
5.7344	534.477495211	0.0
5.7446	534.572150985	1.0
5.7549	534.667244273	3.0
5.7651	534.76093109	5.0
5.7754	534.855050942	1.0
5.7856	534.947778722	2.0
5.7958	535.040032986	1.0
5.8061	535.132713663	3.0
5.8163	535.224023554	2.0
5.8266	535.315755493	2.0
5.8368	535.406130678	0.0
5.847	535.496044361	4.0
5.8573	535.586373638	1.0
5.8675	535.675366907	0.0
5.8778	535.764771517	3.0
5.888	535.852853795	3.0
5.8982	535.940486279	1.0
5.9085	536.028523813	2.0
5.9187	536.115259236	3.0
5.929	536.202395563	5.0
5.9392	536.288243106	3.0
5.9494	536.373652268	3.0
5.9597	536.459456204	2.0
5.9699	536.543991064	2.0
5.9802	536.628916656	1.0
5.9904	536.712586163	3.0
6.0006	536.795828411	3.0
6.0109	536.879455417	4.0
6.0211	536.961845544	2.0
6.0314	537.04461649	2.0
6.0416	537.12616322	1.0
6.0518	537.20729353	2.0
6.0621	537.288798836	1.0
6.0723	537.369098645	2.0
6.0826	537.449769611	3.0
6.0928	537.52924742	9.0
6.103	537.608319374	2.0
6.1133	537.687756811	4.0
6.1235	537.766019334	1.0
6.1338	537.844643599	2.0
6.144	537.922104978	1.0
6.1542	537.999170799	2.0
6.1645	538.07659283	5.0
6.1747	538.152869756	3.0
6.185	538.229499246	5.0
6.1952	538.304995353	1.0
6.2054	538.380105939	2.0
6.2157	538.455563696	4.0
6.2259	538.529905402	3.0
6.2362	538.604590727	1.0
6.2464	538.678171423	3.0
6.2566	538.751376379	2.0
6.2669	538.8249197	1.0
6.2771	538.897375283	1.0
6.2874	538.970165768	0.0
6.2976	539.04187965	4.0
6.3078	539.113227324	1.0
6.3181	539.184904778	1.0
6.3283	539.255522093	3.0
6.3386	539.326465811	2.0
6.3488	539.396360241	4.0
6.359	539.465897755	5.0
6.3693	539.535756682	2.0
6.3795	539.604582365	4.0
6.3898	539.673726171	2.0
6.4	539.741847312	3.0
6.4102	539.80962059	2.0
6.4205	539.877707127	2.0
6.4307	539.944786635	3.0
6.441	540.012176195	1.0
6.4512	540.078569035	0.0
6.4614	540.144622839	6.0
6.4717	540.210981954	2.0
6.4819	540.276359589	1.0
6.4922	540.34203941	3.0
6.5024	540.406747798	2.0
6.5126	540.471125752	4.0
6.5229	540.535801271	2.0
6.5331	540.599520211	2.0
6.5434	540.66353367	2.0
6.5536	540.726600343	2.0
6.5638	540.789344965	3.0
6.5741	540.852379602	4.0
6.5843	540.91448193	2.0
6.5946	540.976871305	5.0
6.6048	541.038337914	2.0
6.615	541.099490643	1.0
6.6253	541.16092603	1.0
6.6355	541.221452761	2.0
6.6458	541.282259256	2.0
6.656	541.342166397	5.0
6.6662	541.401767621	3.0
6.6765	541.461644332	2.0
6.6867	541.52063544	3.0
6.697	541.579899214	0.0
6.7072	541.638286453	3.0
6.7174	541.696375535	2.0
6.7277	541.754733115	2.0
6.7379	541.812227561	5.0
6.7482	541.869987755	0.0
6.7584	541.926893651	1.0
6.7686	541.983508957	1.0
6.7789	542.040385947	2.0
6.7891	542.096421702	1.0
6.7994	542.152716464	1.0
6.8096	542.208178602	2.0
6.8198	542.263357521	2.0
6.8301	542.318791486	3.0
6.8403	542.37340556	4.0
6.8506	542.428272067	2.0
6.8608	542.482327076	2.0
6.871	542.536106053	3.0
6.8813	542.590133603	1.0
6.8915	542.643362064	4.0
6.9018	542.696836554	3.0
6.912	542.749520135	4.0
6.9222	542.801934685	3.0
6.9325	542.854591504	3.0
6.9427	542.906469506	4.0
6.953	542.958587297	1.0
6.9632	543.009934243	3.0
6.9734	543.061018985	2.0
6.9837	543.112339848	1.0
6.9939	543.162901654	0.0
7.0042	543.213697165	1.0
7.0144	543.263741389	4.0
7.0246	543.313530061	1.0
7.0349	543.363548863	0.0
7.0451	543.412827867	0.0
7.0554	543.462334645	0.0
7.0656	543.511109198	1.0
7.0758	543.559634682	6.0
7.0861	543.608384459	3.0
7.0963	543.656413206	1.0
7.1066	543.704663949	2.0
7.1168	543.752201043	0.0
7.127	543.799495388	1.0
7.1373	543.847008335	2.0
7.1475	543.893818545	1.0
7.1578	543.940845119	1.0
7.168	543.98717615	2.0
7.1782	544.033270592	0.0
7.1885	544.079578088	0.0
7.1987	544.125200677	0.0
7.209	544.171034141	4.0
7.2192	544.216189709	0.0
7.2294	544.261114689	4.0
7.2397	544.306247319	5.0
7.2499	544.350712418	0.0
7.2602	544.395383042	3.0
7.2704	544.439392968	0.0
7.2806	544.483178157	2.0
7.2909	544.527165728	1.0
7.3011	544.570502704	1.0
7.3114	544.61403999	2.0
7.3216	544.656933341	1.0
7.3318	544.699607657	0.0
7.3421	544.74247922	2.0
7.3523	544.784716694	4.0
7.3626	544.827149396	1.0
7.3728	544.868954501	2.0
7.383	544.910546127	1.0
7.3933	544.952329997	1.0
7.4035	544.993495865	2.0
7.4138	545.034852008	1.0
7.424	545.075596476	1.0
7.4342	545.116132882	1.0
7.4445	545.156856653	3.0
7.4547	545.196978103	3.0
7.465	545.237285	1.0
7.4752	545.276995741	2.0
7.4854	545.316503698	0.0
7.4957	545.356194267	2.0
7.5059	545.395297796	1.0
7.5162	545.434582068	1.0
7.5264	545.473285308	2.0
7.5366	545.51179091	2.0
7.5469	545.55047449	0.0
7.5571	545.588585924	5.0
7.5674	545.626873515	1.0
7.5776	545.664594816	1.0
7.5878	545.702123493	0.0
7.5981	545.739825633	5.0
7.6083	545.776970143	4.0
7.6186	545.81428634	4.0
7.6288	545.851050614	1.0
7.639	545.887627152	2.0
7.6493	545.924372751	0.0
7.6595	545.960574868	6.0
7.6698	545.996944316	3.0
7.68	546.032775845	2.0
7.6902	546.0684244	0.0
7.7005	546.104237728	1.0
7.7107	546.139521361	1.0
7.721	546.174968081	0.0
7.7312	546.209890529	2.0
7.7414	546.244634644	2.0
7.7517	546.279539353	3.0
7.7619	546.313927806	3.0
7.7722	546.348475207	0.0
7.7824	546.382511638	3.0
7.7926	546.416374262	3.0
7.8029	546.450393403	4.0
7.8131	546.483909388	3.0
7.8234	546.517580288	1.0
7.8336	546.550753181	4.0
7.8438	546.583756676	1.0
7.8541	546.616912719	3.0
7.8643	546.64957837	4.0
7.8746	546.682395006	2.0
7.8848	546.71472627	1.0
7.895	546.746892434	2.0
7.9053	546.779207276	2.0
