TL-DOS Lehrstuhlversuch
detector=R1407601
job_number=2015-11-02-007
irradiation_dose [mSv]=0.3

[BEGIN DATA]
time [sec] 	 temperature [K] 	 photoncount 
0.0	159.004502015	0.0
0.0102	160.368523581	0.0
0.0205	161.741057243	1.0
0.0307	163.09546882	0.0
0.041	164.458332522	4.0
0.0512	165.803201814	1.0
0.0614	167.143348314	1.0
0.0717	168.491857919	1.0
0.0819	169.822562637	1.0
0.0922	171.161571539	2.0
0.1024	172.482900995	0.0
0.1126	173.799590325	0.0
0.1229	175.124496376	0.0
0.1331	176.431909187	2.0
0.1434	177.747480829	3.0
0.1536	179.045682478	0.0
0.1638	180.339325218	1.0
0.1741	181.641040858	0.0
0.1843	182.925569451	0.0
0.1946	184.218114067	2.0
0.2048	185.493592724	2.0
0.215	186.764592269	1.0
0.2253	188.043523411	0.0
0.2355	189.305568338	2.0
0.2458	190.57548898	2.0
0.256	191.828642376	1.0
0.2662	193.07739506	0.0
0.2765	194.33394051	3.0
0.2867	195.573895312	0.0
0.297	196.821587977	1.0
0.3072	198.052806881	0.0
0.3174	199.2797021	0.0
0.3277	200.514253685	0.0
0.3379	201.732505015	1.0
0.3482	202.95835877	2.0
0.3584	204.16802711	1.0
0.3686	205.373447445	2.0
0.3789	206.586390134	2.0
0.3891	207.783317878	1.0
0.3994	208.987714978	1.0
0.4096	210.176209964	1.0
0.4198	211.360531299	0.0
0.4301	212.552243321	1.0
0.4403	213.728220715	1.0
0.4506	214.911536725	0.0
0.4608	216.079228963	2.0
0.471	217.242820604	1.0
0.4813	218.413673569	2.0
0.4915	219.569067315	2.0
0.5018	220.731671228	0.0
0.512	221.878924837	0.0
0.5222	223.022149624	2.0
0.5325	224.172508637	0.0
0.5427	225.307679022	0.0
0.553	226.449933369	3.0
0.5632	227.577106097	2.0
0.5734	228.70032052	2.0
0.5837	229.830544296	1.0
0.5939	230.945845296	1.0
0.6042	232.068106265	3.0
0.6144	233.175549595	1.0
0.6246	234.279103905	1.0
0.6349	235.389544879	3.0
0.6451	236.485324278	2.0
0.6554	237.587941823	2.0
0.6656	238.676001088	5.0
0.6758	239.760239403	0.0
0.6861	240.851243843	1.0
0.6963	241.927843335	1.0
0.7066	243.011161283	6.0
0.7168	244.08017577	2.0
0.727	245.145436188	0.0
0.7373	246.217344299	1.0
0.7475	247.2750996	2.0
0.7578	248.339455759	1.0
0.768	249.389758818	1.0
0.7782	250.436373516	0.0
0.7885	251.489519551	1.0
0.7987	252.528760497	3.0
0.809	253.574486765	3.0
0.8192	254.606405909	1.0
0.8294	255.634701253	4.0
0.8397	256.669413612	1.0
0.8499	257.690464269	4.0
0.8602	258.717886732	1.0
0.8704	259.731743744	1.0
0.8806	260.742040384	0.0
0.8909	261.75864172	0.0
0.9011	262.76182048	0.0
0.9114	263.771259518	0.0
0.9216	264.767370547	2.0
0.9318	265.759983523	1.0
0.9421	266.758790841	4.0
0.9523	267.744410525	0.0
0.9626	268.736180909	0.0
0.9728	269.714856571	0.0
0.983	270.690095407	1.0
0.9933	271.671420163	4.0
1.0035	272.639788115	0.0
1.0138	273.614199108	1.0
1.024	274.575744582	1.0
1.0342	275.533913386	2.0
1.0445	276.498061585	3.0
1.0547	277.449479768	0.0
1.065	278.406835219	1.0
1.0752	279.351550342	1.0
1.0854	280.292947898	3.0
1.0957	281.240220189	2.0
1.1059	282.174985284	1.0
1.1162	283.115583724	0.0
1.1264	284.043763084	3.0
1.1366	284.968682946	0.0
1.1469	285.899374716	2.0
1.1571	286.817778208	1.0
1.1674	287.741912942	1.0
1.1776	288.653845972	1.0
1.1878	289.562576558	0.0
1.1981	290.476978023	1.0
1.2083	291.379306296	1.0
1.2186	292.287265495	3.0
1.2288	293.183236563	0.0
1.239	294.076061239	3.0
1.2493	294.974457535	2.0
1.2595	295.860991961	2.0
1.2698	296.753058753	0.0
1.28	297.633347247	1.0
1.2902	298.510544422	2.0
1.3005	299.393215694	2.0
1.3107	300.264232721	3.0
1.321	301.140685277	0.0
1.3312	302.005565697	1.0
1.3414	302.867408906	3.0
1.3517	303.734630396	0.0
1.3619	304.590401631	0.0
1.3722	305.451513254	3.0
1.3824	306.301255293	0.0
1.3926	307.148013283	4.0
1.4029	308.000055417	3.0
1.4131	308.840847713	0.0
1.4234	309.686886923	1.0
1.4336	310.521755554	2.0
1.4438	311.353692369	0.0
1.4541	312.190820836	0.0
1.4643	313.016896376	0.0
1.4746	313.848126992	1.0
1.4848	314.668382553	3.0
1.495	315.485757613	4.0
1.5053	316.308233454	1.0
1.5155	317.119849833	2.0
1.5258	317.936531055	0.0
1.536	318.742429324	2.0
1.5462	319.545497511	3.0
1.5565	320.353577197	1.0
1.5667	321.150987499	1.0
1.577	321.953373993	3.0
1.5872	322.745166271	1.0
1.5974	323.534178004	2.0
1.6077	324.328113518	4.0
1.6179	325.111566399	1.0
1.6282	325.89990837	2.0
1.6384	326.677841562	2.0
1.6486	327.453042877	2.0
1.6589	328.233081791	2.0
1.6691	329.002821552	1.0
1.6794	329.777364829	1.0
1.6896	330.541681516	3.0
1.6998	331.303314144	1.0
1.7101	332.069699694	4.0
1.7203	332.825966364	3.0
1.7306	333.586952471	3.0
1.7408	334.337890988	2.0
1.751	335.086192427	1.0
1.7613	335.839163596	0.0
1.7715	336.582192999	7.0
1.7818	337.329859233	1.0
1.792	338.067653745	4.0
1.8022	338.802857336	2.0
1.8125	339.542648921	8.0
1.8227	340.272672755	6.0
1.833	341.00725226	3.0
1.8432	341.732132831	3.0
1.8534	342.454467832	2.0
1.8637	343.181310521	2.0
1.8739	343.898556429	4.0
1.8842	344.620278267	5.0
1.8944	345.332470937	5.0
1.9046	346.042162592	2.0
1.9149	346.756283035	3.0
1.9251	347.460974674	3.0
1.9354	348.170063899	2.0
1.9456	348.869790748	2.0
1.9558	349.56706036	3.0
1.9661	350.268681241	3.0
1.9763	350.961038353	4.0
1.9866	351.657716079	5.0
1.9968	352.345195303	0.0
2.007	353.0302603	10.0
2.0173	353.719600403	2.0
2.0275	354.399838886	7.0
2.0378	355.084322357	3.0
2.048	355.759768332	4.0
2.0582	356.432842335	6.0
2.0685	357.110116617	5.0
2.0787	357.778448588	5.0
2.089	358.450951245	4.0
2.0992	359.114574593	3.0
2.1094	359.775867488	6.0
2.1197	360.441287142	5.0
2.1299	361.097921006	7.0
2.1402	361.758652555	7.0
2.1504	362.410660213	8.0
2.1606	363.060378209	8.0
2.1709	363.714150731	9.0
2.1811	364.359291246	5.0
2.1914	365.008457721	7.0
2.2016	365.649053004	12.0
2.2118	366.287398701	5.0
2.2221	366.929727957	10.0
2.2323	367.563576294	8.0
2.2426	368.201380125	11.0
2.2528	368.830762788	10.0
2.263	369.457935241	9.0
2.2733	370.089021527	11.0
2.2835	370.71177534	11.0
2.2938	371.33841541	13.0
2.304	371.956781713	8.0
2.3142	372.572976493	14.0
2.3245	373.193016599	5.0
2.3347	373.804870079	11.0
2.345	374.420541794	6.0
2.3552	375.028084561	13.0
2.3654	375.633493814	10.0
2.3757	376.242681087	14.0
2.3859	376.843825028	11.0
2.3962	377.448720371	14.0
2.4064	378.045629051	11.0
2.4166	378.640441561	9.0
2.4269	379.238965962	17.0
2.4371	379.829587818	18.0
2.4474	380.423895414	17.0
2.4576	381.01035614	22.0
2.4678	381.594757385	14.0
2.4781	382.182805552	19.0
2.4883	382.763089495	22.0
2.4986	383.346994665	18.0
2.5088	383.923190312	20.0
2.519	384.497362527	23.0
2.5293	385.075117829	25.0
2.5395	385.645244808	27.0
2.5498	386.218929631	24.0
2.56	386.785039873	30.0
2.5702	387.349162101	21.0
2.5805	387.916804699	18.0
2.5907	388.476952496	31.0
2.601	389.040595862	26.0
2.6112	389.596797229	28.0
2.6214	390.151045378	29.0
2.6317	390.70875228	26.0
2.6419	391.259095565	29.0
2.6522	391.812873234	30.0
2.6624	392.359339165	25.0
2.6726	392.903886066	36.0
2.6829	393.45183118	49.0
2.6931	393.992541566	29.0
2.7034	394.536626222	31.0
2.7136	395.073527121	34.0
2.7238	395.608542579	42.0
2.7341	396.14689677	47.0
2.7443	396.678142865	46.0
2.7546	397.212704169	48.0
2.7648	397.740207457	31.0
2.775	398.265858306	40.0
2.7853	398.794789447	39.0
2.7955	399.316736909	41.0
2.8058	399.841941553	39.0
2.816	400.36021172	40.0
2.8262	400.876661872	32.0
2.8365	401.3963349	47.0
2.8467	401.909146487	45.0
2.857	402.425158244	36.0
2.8672	402.934356902	51.0
2.8774	403.4417674	42.0
2.8877	403.952344364	42.0
2.8979	404.456179986	34.0
2.9082	404.963159763	47.0
2.9184	405.463445694	39.0
2.9286	405.961974764	44.0
2.9389	406.463614876	54.0
2.9491	406.958631642	39.0
2.9594	407.456737531	33.0
2.9696	407.948266738	40.0
2.9798	408.438069836	39.0
2.9901	408.930929521	42.0
3.0003	409.417281792	36.0
3.0106	409.906669115	36.0
3.0208	410.389594871	40.0
3.031	410.870824732	42.0
3.0413	411.355057678	35.0
3.0515	411.832897113	26.0
3.0618	412.313718475	31.0
3.072	412.78819137	36.0
3.0822	413.260998054	25.0
3.0925	413.736755259	26.0
3.1027	414.206230861	41.0
3.113	414.678636197	24.0
3.1232	415.144804185	25.0
3.1334	415.609335126	32.0
3.1437	416.076764945	40.0
3.1539	416.53802311	26.0
3.1642	417.002159728	35.0
3.1744	417.460168174	22.0
3.1846	417.916568227	31.0
3.1949	418.375816417	35.0
3.2051	418.829000978	18.0
3.2154	419.285013611	20.0
3.2256	419.735005334	24.0
3.2358	420.183416817	24.0
3.2461	420.634626585	25.0
3.2563	421.079878859	31.0
3.2666	421.527909702	21.0
3.2768	421.970025024	21.0
3.287	422.410587764	22.0
3.2973	422.85389981	25.0
3.3075	423.291358638	28.0
3.3178	423.731547402	17.0
3.328	424.165924186	20.0
3.3382	424.598775564	29.0
3.3485	425.034328125	28.0
3.3587	425.46412992	23.0
3.369	425.896613867	25.0
3.3792	426.323387563	27.0
3.3894	426.748662554	29.0
3.3997	427.176591448	24.0
3.4099	427.598870234	28.0
3.4202	428.023784226	30.0
3.4304	428.443087915	16.0
3.4406	428.860919132	32.0
3.4509	429.281357799	23.0
3.4611	429.696245255	32.0
3.4714	430.113721791	28.0
3.4816	430.525686224	40.0
3.4918	430.936203958	21.0
3.5021	431.349283504	34.0
3.5123	431.756909002	28.0
3.5226	432.167078264	27.0
3.5328	432.571831904	37.0
3.543	432.975164166	33.0
3.5533	433.3810134	33.0
3.5635	433.781504051	27.0
3.5738	434.18449394	34.0
3.584	434.582163	36.0
3.5942	434.978435561	50.0
3.6045	435.377181038	46.0
3.6147	435.770661726	46.0
3.625	436.166597906	32.0
3.6352	436.557306391	30.0
3.6454	436.94664282	36.0
3.6557	437.33840888	35.0
3.6659	437.725002303	39.0
3.6762	438.11400824	42.0
3.6864	438.497877983	54.0
3.6966	438.880399686	32.0
3.7069	439.265308493	32.0
3.7171	439.645135203	33.0
3.7274	440.027332198	38.0
3.7376	440.404482901	37.0
3.7478	440.780309159	36.0
3.7581	441.158480739	48.0
3.7683	441.531659175	44.0
3.7786	441.907166409	48.0
3.7888	442.277715678	45.0
3.799	442.646963685	50.0
3.8093	443.018515963	39.0
3.8195	443.385162493	45.0
3.8298	443.75409706	48.0
3.84	444.118160443	41.0
3.8502	444.48094534	44.0
3.8605	444.845994175	45.0
3.8707	445.206223132	39.0
3.881	445.568700075	33.0
3.8912	445.926391097	50.0
3.9014	446.282826012	25.0
3.9117	446.641485237	50.0
3.9219	446.995408948	43.0
3.9322	447.351541299	39.0
3.9424	447.702971499	44.0
3.9526	448.053167577	53.0
3.9629	448.405549034	44.0
3.9731	448.753277863	44.0
3.9834	449.103176673	36.0
3.9936	449.448455636	55.0
4.0038	449.79252208	47.0
4.0141	450.138735649	35.0
4.0243	450.480378028	49.0
4.0346	450.824152407	27.0
4.0448	451.163387801	41.0
4.055	451.501431899	40.0
4.0653	451.84158554	48.0
4.0755	452.177248004	37.0
4.0858	452.515005149	41.0
4.096	452.848302758	43.0
4.1062	453.180429922	36.0
4.1165	453.514629705	39.0
4.1267	453.844416922	36.0
4.137	454.176262155	39.0
4.1472	454.50372591	34.0
4.1574	454.830039707	34.0
4.1677	455.158389846	51.0
4.1779	455.482404652	39.0
4.1882	455.808441454	40.0
4.1984	456.130173467	39.0
4.2086	456.45077565	31.0
4.2189	456.773378533	32.0
4.2291	457.091721966	32.0
4.2394	457.412052003	33.0
4.2496	457.7281526	35.0
4.2598	458.043143143	32.0
4.2701	458.360099366	38.0
4.2803	458.672870695	50.0
4.2906	458.987593855	38.0
4.3008	459.298161605	39.0
4.311	459.607638731	35.0
4.3213	459.919047131	32.0
4.3315	460.226343886	28.0
4.3418	460.535558309	39.0
4.352	460.840690056	16.0
4.3622	461.144750268	30.0
4.3725	461.45070795	34.0
4.3827	461.752625956	22.0
4.393	462.056428063	28.0
4.4032	462.356218955	41.0
4.4134	462.654957069	31.0
4.4237	462.955559439	35.0
4.4339	463.252192842	39.0
4.4442	463.550677369	31.0
4.4544	463.84522089	23.0
4.4646	464.138730059	39.0
4.4749	464.434070855	26.0
4.4851	464.725512154	28.0
4.4954	465.018772174	35.0
4.5056	465.308160171	36.0
4.5158	465.596531921	40.0
4.5261	465.886703238	33.0
4.5363	466.173043312	27.0
4.5466	466.461170274	32.0
4.5568	466.745492986	26.0
4.567	467.028817239	38.0
4.5773	467.313909561	33.0
4.5875	467.595237699	37.0
4.5978	467.878321449	39.0
4.608	468.157667536	30.0
4.6182	468.436032641	33.0
4.6285	468.716134866	25.0
4.6387	468.992538795	36.0
4.649	469.270667606	39.0
4.6592	469.545124177	34.0
4.6694	469.818616935	26.0
4.6797	470.093816409	30.0
4.6899	470.365382319	29.0
4.7002	470.63864292	47.0
4.7104	470.908295557	36.0
4.7206	471.177001252	38.0
4.7309	471.447383788	24.0
4.7411	471.714196361	30.0
4.7514	471.982673962	24.0
4.7616	472.247606751	36.0
4.7718	472.511609173	35.0
4.7821	472.777259086	31.0
4.7923	473.039401522	32.0
4.8026	473.303179842	34.0
4.8128	473.563475396	31.0
4.823	473.822856868	34.0
4.8333	474.083856994	29.0
4.8435	474.341411036	27.0
4.8538	474.600572328	24.0
4.864	474.856311816	30.0
4.8742	475.11115322	37.0
4.8845	475.367584947	34.0
4.8947	475.620630908	34.0
4.905	475.875255987	34.0
4.9152	476.126519154	34.0
4.9254	476.376899957	28.0
4.9357	476.628843247	29.0
4.9459	476.877460034	33.0
4.9562	477.127628299	38.0
4.9664	477.374493497	29.0
4.9766	477.620491776	29.0
4.9869	477.868025192	29.0
4.9971	478.11229033	30.0
5.0074	478.358079791	35.0
5.0176	478.600623999	38.0
5.0278	478.842316462	29.0
5.0381	479.085517193	32.0
5.0483	479.325506852	27.0
5.0586	479.566994151	14.0
5.0688	479.805293002	33.0
5.079	480.042755017	32.0
5.0893	480.281698898	36.0
5.0995	480.517487913	30.0
5.1098	480.754748355	24.0
5.12	480.988876157	33.0
5.1302	481.22218177	30.0
5.1405	481.456943312	18.0
5.1507	481.688605208	18.0
5.161	481.921712777	23.0
5.1712	482.151742537	28.0
5.1814	482.3809645	40.0
5.1917	482.611616908	26.0
5.2019	482.839223925	25.0
5.2122	483.06825131	37.0
5.2224	483.294254759	27.0
5.2326	483.519464549	35.0
5.2429	483.746079747	22.0
5.2531	483.969702859	25.0
5.2634	484.194721477	29.0
5.2736	484.416769089	23.0
5.2838	484.638036933	21.0
5.2941	484.860685587	33.0
5.3043	485.080394525	28.0
5.3146	485.301474544	25.0
5.3248	485.519635559	29.0
5.335	485.737030456	21.0
5.3453	485.955781992	16.0
5.3555	486.171645269	35.0
5.3658	486.388855627	25.0
5.376	486.603198075	29.0
5.3862	486.816787813	25.0
5.3965	487.031710446	30.0
5.4067	487.243795373	36.0
5.417	487.457203804	22.0
5.4272	487.667794521	25.0
5.4374	487.877645705	24.0
5.4477	488.088806453	18.0
5.4579	488.297179165	27.0
5.4682	488.506852215	21.0
5.4784	488.713756871	26.0
5.4886	488.919934938	32.0
5.4989	489.127399647	27.0
5.5091	489.33212512	21.0
5.5194	489.53812817	24.0
5.5296	489.741411283	20.0
5.5398	489.943980525	29.0
5.5501	490.147813889	22.0
5.5603	490.348955962	30.0
5.5706	490.551353251	34.0
5.5808	490.751078211	22.0
5.591	490.950101795	26.0
5.6013	491.150367373	30.0
5.6115	491.347988769	27.0
5.6218	491.54684341	30.0
5.632	491.743072496	27.0
5.6422	491.938612483	24.0
5.6525	492.135372726	20.0
5.6627	492.329535068	23.0
5.673	492.524909069	17.0
5.6832	492.717703472	23.0
5.6934	492.909820837	20.0
5.7037	493.103137099	23.0
5.7139	493.293900932	27.0
5.7242	493.485855216	23.0
5.7344	493.675275055	30.0
5.7446	493.864029705	31.0
5.7549	494.053962268	27.0
5.7651	494.241387079	20.0
5.7754	494.429981503	21.0
5.7856	494.616085843	27.0
5.7958	494.801536638	25.0
5.8061	494.988144728	24.0
5.8163	495.172288961	19.0
5.8266	495.357582334	27.0
5.8368	495.540429208	25.0
5.847	495.722633977	29.0
5.8573	495.905975784	24.0
5.8675	496.086896859	19.0
5.8778	496.268946962	26.0
5.888	496.448593387	29.0
5.8982	496.627608946	30.0
5.9085	496.807741641	14.0
5.9187	496.985495976	20.0
5.929	497.164359576	29.0
5.9392	497.340861571	35.0
5.9494	497.516743743	25.0
5.9597	497.693723496	29.0
5.9699	497.868366519	26.0
5.9802	498.044099391	24.0
5.9904	498.217511994	30.0
6.0006	498.390315623	30.0
6.0109	498.564197623	25.0
6.0211	498.735783792	25.0
6.0314	498.908440735	27.0
6.0416	499.078818022	23.0
6.0518	499.248596993	26.0
6.0621	499.41943546	25.0
6.0723	499.588018281	28.0
6.0826	499.757653134	26.0
6.0928	499.925048232	20.0
6.103	500.091855488	27.0
6.1133	500.259703695	22.0
6.1235	500.425335737	20.0
6.1338	500.592001397	24.0
6.144	500.756466506	21.0
6.1542	500.920354061	25.0
6.1645	501.085264347	31.0
6.1747	501.247997259	25.0
6.185	501.411745697	32.0
6.1952	501.573332101	25.0
6.2054	501.734351061	22.0
6.2157	501.896374849	19.0
6.2259	502.056259376	24.0
6.2362	502.217141653	25.0
6.2464	502.37589974	24.0
6.2566	502.534100315	23.0
6.2669	502.69328813	26.0
6.2771	502.850374128	25.0
6.2874	503.008440412	17.0
6.2976	503.164419687	19.0
6.3078	503.319851207	14.0
6.3181	503.476252689	24.0
6.3283	503.630589142	23.0
6.3386	503.785888723	20.0
6.3488	503.939137824	17.0
6.359	504.091848758	19.0
6.3693	504.245512676	20.0
6.3795	504.397147711	29.0
6.3898	504.549729015	26.0
6.4	504.70029573	25.0
6.4102	504.850333698	18.0
6.4205	505.001307969	17.0
6.4307	505.15028887	23.0
6.441	505.300199476	33.0
6.4512	505.448130756	27.0
6.4614	505.595542544	25.0
6.4717	505.743874247	21.0
6.4819	505.890247469	19.0
6.4922	506.037534125	20.0
6.5024	506.182876099	15.0
6.5126	506.327707674	17.0
6.5229	506.473443061	18.0
6.5331	506.617254249	15.0
6.5434	506.761962882	24.0
6.5536	506.904760872	35.0
6.5638	507.047057397	18.0
6.5741	507.190241914	21.0
6.5843	507.331535912	15.0
6.5946	507.473711646	25.0
6.6048	507.61401018	15.0
6.615	507.753816026	18.0
6.6253	507.894494322	19.0
6.6355	508.03331519	13.0
6.6458	508.17300236	17.0
6.656	508.310845187	14.0
6.6662	508.44820395	15.0
6.6765	508.586419893	25.0
6.6867	508.722810918	16.0
6.697	508.860053082	13.0
6.7072	508.995483186	15.0
6.7174	509.130437699	9.0
6.7277	509.266234387	13.0
6.7379	509.4002381	13.0
6.7482	509.535078055	13.0
6.7584	509.668137667	16.0
6.7686	509.800730011	4.0
6.7789	509.934149791	13.0
6.7891	510.065807978	12.0
6.7994	510.19828777	13.0
6.8096	510.329018381	5.0
6.8198	510.459289904	12.0
6.8301	510.590374379	18.0
6.8403	510.719728095	16.0
6.8506	510.849889036	11.0
6.8608	510.978331412	9.0
6.871	511.106322735	10.0
6.8813	511.235112781	9.0
6.8915	511.362202362	11.0
6.9018	511.490085039	11.0
6.912	511.616279232	7.0
6.9222	511.742030267	5.0
6.9325	511.868566044	8.0
6.9427	511.993431121	10.0
6.953	512.119075411	10.0
6.9632	512.243060772	6.0
6.9734	512.366610732	7.0
6.9837	512.490931698	12.0
6.9939	512.613611207	7.0
7.0042	512.73705629	3.0
7.0144	512.858871481	3.0
7.0246	512.980258892	14.0
7.0349	513.102403813	5.0
7.0451	513.222936009	10.0
7.0554	513.344220379	6.0
7.0656	513.463903385	11.0
7.0758	513.583166099	9.0
7.0861	513.703173065	8.0
7.0963	513.821595533	7.0
7.1066	513.940757009	5.0
7.1168	514.058345151	7.0
7.127	514.175520358	9.0
7.1373	514.293426789	8.0
7.1475	514.409776457	6.0
7.1578	514.526852198	9.0
7.168	514.642382143	6.0
7.1782	514.75750638	5.0
7.1885	514.873349044	7.0
7.1987	514.987662192	3.0
7.209	515.102688705	8.0
7.2192	515.216196479	7.0
7.2294	515.329305647	9.0
7.2397	515.443120666	1.0
7.2499	515.555432941	2.0
7.2602	515.668446095	7.0
7.2704	515.779967093	4.0
7.2806	515.891096461	8.0
7.2909	516.002919325	5.0
7.3011	516.11326575	7.0
7.3114	516.224300785	5.0
7.3216	516.333869782	2.0
7.3318	516.443054004	6.0
7.3421	516.552919584	4.0
7.3523	516.661334567	3.0
7.3626	516.770426107	2.0
7.3728	516.87807727	4.0
7.383	516.985350393	3.0
7.3933	517.093292948	6.0
7.4035	517.199810296	5.0
7.4138	517.306992359	1.0
7.424	517.412759256	5.0
7.4342	517.518154731	5.0
7.4445	517.62420792	5.0
7.4547	517.728860848	1.0
7.465	517.834166857	4.0
7.4752	517.93808247	3.0
7.4854	518.041633162	1.0
7.4957	518.145830055	1.0
7.5059	518.248651197	3.0
7.5162	518.352113989	5.0
7.5264	518.454210721	1.0
7.5366	518.55594892	1.0
7.5469	518.65832201	2.0
7.5571	518.759343428	2.0
7.5674	518.860995265	4.0
7.5776	518.961304954	4.0
7.5878	519.061262384	2.0
7.5981	519.161843593	3.0
7.6083	519.26109679	6.0
7.6186	519.36096937	6.0
7.6288	519.459523295	3.0
7.639	519.557731126	0.0
7.6493	519.656551818	3.0
7.6595	519.754067743	1.0
7.6698	519.852192209	1.0
7.68	519.949021101	1.0
7.6902	520.045509958	1.0
7.7005	520.142600948	2.0
7.7107	520.238410009	1.0
7.721	520.33481696	1.0
7.7312	520.429951014	5.0
7.7414	520.524750984	3.0
7.7517	520.620142548	5.0
7.7619	520.714274621	3.0
7.7722	520.808994119	3.0
7.7824	520.902463	1.0
7.7926	520.995603644	1.0
7.8029	521.089325528	2.0
7.8131	521.181809966	3.0
7.8234	521.274871547	1.0
7.8336	521.366704401	5.0
7.8438	521.458214765	1.0
7.8541	521.550296193	1.0
7.8643	521.641161835	1.0
7.8746	521.732594519	2.0
7.8848	521.822819982	2.0
7.895	521.9127286	1.0
7.9053	522.003198287	0.0
7.9155	522.092473468	1.0
7.9258	522.182305765	1.0
7.936	522.270951973	0.0
7.9462	522.359286881	0.0
7.9565	522.448173037	1.0
7.9667	522.535885595	0.0
7.977	522.624145519	0.0
7.9872	522.711240113	0.0
7.9974	522.798028856	0.0
8.0077	522.885359199	1.0
