TL-DOS Lehrstuhlversuch
detector=R1408206
job_number=2015-10-26-008
irradiation_dose [mSv]=0.5

[BEGIN DATA]
time [sec] 	 temperature [K] 	 photoncount 
0.0	223.295457688	0.0
0.0102	224.236285831	0.0
0.0205	225.183928164	2.0
0.0307	226.119989908	5.0
0.041	227.06283132	2.0
0.0512	227.994150813	0.0
0.0614	228.923119705	0.0
0.0717	229.858816893	1.0
0.0819	230.783079467	4.0
0.0922	231.71403625	1.0
0.1024	232.633616349	2.0
0.1126	233.550875477	0.0
0.1229	234.47477809	0.0
0.1331	235.387390224	1.0
0.1434	236.306612186	2.0
0.1536	237.214600867	2.0
0.1638	238.120297834	1.0
0.1741	239.032554544	3.0
0.1843	239.933663093	1.0
0.1946	240.841298152	2.0
0.2048	241.737841528	1.0
0.215	242.632122076	1.0
0.2253	243.532879681	1.0
0.2355	244.422629648	3.0
0.2458	245.318823859	3.0
0.256	246.204066198	0.0
0.2662	247.087074233	0.0
0.2765	247.976477681	0.0
0.2867	248.855012243	0.0
0.297	249.739909819	0.0
0.3072	250.613993573	0.0
0.3174	251.485871185	0.0
0.3277	252.364063596	1.0
0.3379	253.231524126	0.0
0.3482	254.105267461	0.0
0.3584	254.968333285	0.0
0.3686	255.829220776	0.0
0.3789	256.696343467	0.0
0.3891	257.552869552	0.0
0.3994	258.415599249	0.0
0.4096	259.267786024	0.0
0.4198	260.117821925	0.0
0.4301	260.974014431	0.0
0.4403	261.819743903	0.0
0.4506	262.671598788	0.0
0.4608	263.513043647	0.0
0.471	264.352364744	0.0
0.4813	265.197764841	3.0
0.4915	266.032833791	1.0
0.5018	266.873950944	1.0
0.512	267.70478929	0.0
0.5222	268.533530644	0.0
0.5325	269.368274372	0.0
0.5427	270.192817178	0.0
0.553	271.023331949	0.0
0.5632	271.843697478	0.0
0.5734	272.661992448	1.0
0.5837	273.486214131	0.0
0.5939	274.300363477	0.0
0.6042	275.120409509	0.0
0.6144	275.930434233	0.0
0.6246	276.738414497	1.0
0.6349	277.552246767	0.0
0.6451	278.356133663	0.0
0.6554	279.165842917	1.0
0.6656	279.965657182	0.0
0.6758	280.763452758	0.0
0.6861	281.567026575	1.0
0.6963	282.36078038	0.0
0.7066	283.160283152	1.0
0.7168	283.950015663	0.0
0.727	284.737754931	0.0
0.7373	285.531199603	1.0
0.7475	286.314948047	0.0
0.7578	287.104372991	0.0
0.768	287.884150829	0.0
0.7782	288.661960549	0.0
0.7885	289.445403757	0.0
0.7987	290.219272957	0.0
0.809	290.998747105	0.0
0.8192	291.76869575	0.0
0.8294	292.536701086	0.0
0.8397	293.310268898	0.0
0.8499	294.074383385	1.0
0.8602	294.844032168	0.0
0.8704	295.604275518	0.0
0.8806	296.362600055	1.0
0.8909	297.126416952	2.0
0.9011	297.880899685	0.0
0.9114	298.640846953	0.0
0.9216	299.391507345	0.0
0.9318	300.140273109	0.0
0.9421	300.894462003	0.0
0.9523	301.639434391	0.0
0.9626	302.389802433	0.0
0.9728	303.13100066	0.0
0.983	303.870328143	0.0
0.9933	304.615010396	0.0
1.0035	305.350592317	0.0
1.0138	306.09150188	1.0
1.024	306.823357216	0.0
1.0342	307.553365387	0.0
1.0445	308.288660831	0.0
1.0547	309.014970654	0.0
1.065	309.746540964	0.0
1.0752	310.469171175	0.0
1.0854	311.189977506	0.0
1.0957	311.916004463	0.0
1.1059	312.633159064	1.0
1.1162	313.355507842	1.0
1.1264	314.069029213	0.0
1.1366	314.780749694	0.0
1.1469	315.497624995	0.0
1.1571	316.205739776	0.0
1.1674	316.918983261	0.0
1.1776	317.62351061	0.0
1.1878	318.32625977	0.0
1.1981	319.034098771	0.0
1.2083	319.733287681	0.0
1.2186	320.437540647	0.0
1.2288	321.133187344	0.0
1.239	321.827078266	0.0
1.2493	322.525994872	0.0
1.2595	323.216370422	0.0
1.2698	323.911746195	0.0
1.28	324.598624183	0.0
1.2902	325.283768527	0.0
1.3005	325.973875205	0.0
1.3107	326.655548489	0.0
1.321	327.342158967	0.0
1.3312	328.020378775	0.0
1.3414	328.696886793	2.0
1.3517	329.378294594	0.0
1.3619	330.051375305	1.0
1.3722	330.729330976	0.0
1.3824	331.399001742	0.0
1.3926	332.066982295	0.0
1.4029	332.73980087	0.0
1.4131	333.404397317	0.0
1.4234	334.073807276	0.0
1.4336	334.735036762	1.0
1.4438	335.39459734	0.0
1.4541	336.058934956	2.0
1.4643	336.715154086	2.0
1.4746	337.376126052	0.0
1.4848	338.029020662	0.0
1.495	338.6802674	0.0
1.5053	339.336230961	0.0
1.5155	339.98417837	0.0
1.5258	340.636818705	1.0
1.536	341.2814835	0.0
1.5462	341.924521195	3.0
1.5565	342.572216257	1.0
1.5667	343.211996212	3.0
1.577	343.856409937	0.0
1.5872	344.492948655	1.0
1.5974	345.127880784	2.0
1.6077	345.767411571	0.0
1.6179	346.399127023	1.0
1.6282	347.035417837	0.0
1.6384	347.663932908	1.0
1.6486	348.290861641	0.0
1.6589	348.922331067	2.0
1.6691	349.54608367	3.0
1.6794	350.174353961	0.0
1.6896	350.794946525	0.0
1.6998	351.413972746	1.0
1.7101	352.037482424	1.0
1.7203	352.653372551	1.0
1.7306	353.273723421	2.0
1.7408	353.886493341	1.0
1.751	354.497716662	1.0
1.7613	355.113366926	0.0
1.7715	355.721493684	3.0
1.7818	356.334024957	3.0
1.792	356.939070839	1.0
1.8022	357.542589618	1.0
1.8125	358.150479536	3.0
1.8227	358.750940784	5.0
1.833	359.355751027	5.0
1.8432	359.953170233	0.0
1.8534	360.549081585	4.0
1.8637	361.149308979	2.0
1.8739	361.74220134	5.0
1.8842	362.339387878	2.0
1.8944	362.929276543	2.0
1.9046	363.517676362	6.0
1.9149	364.110337817	7.0
1.9251	364.695756699	9.0
1.9354	365.285415629	2.0
1.9456	365.867868678	8.0
1.9558	366.448851646	5.0
1.9661	367.034042533	4.0
1.9763	367.61208214	8.0
1.9866	368.194308348	7.0
1.9968	368.769419506	7.0
2.007	369.343079115	6.0
2.0173	369.920893601	9.0
2.0275	370.49164695	14.0
2.0378	371.066534127	12.0
2.048	371.63439594	7.0
2.0582	372.2008245	11.0
2.0685	372.771355565	11.0
2.0787	373.3349145	8.0
2.089	373.902555156	11.0
2.0992	374.463259003	12.0
2.1094	375.022547663	12.0
2.1197	375.585887116	15.0
2.1299	376.142342323	12.0
2.1402	376.7028278	13.0
2.1504	377.256463908	13.0
2.1606	377.808702669	14.0
2.1709	378.36494116	10.0
2.1811	378.914382183	21.0
2.1914	379.467802673	25.0
2.2016	380.014460132	19.0
2.2118	380.559737856	17.0
2.2221	381.108964895	27.0
2.2323	381.651480148	22.0
2.2426	382.197924707	23.0
2.2528	382.737691483	28.0
2.263	383.276095917	18.0
2.2733	383.818399883	16.0
2.2835	384.354076666	37.0
2.2938	384.893633226	33.0
2.304	385.426596178	34.0
2.3142	385.958213959	33.0
2.3245	386.493682119	44.0
2.3347	387.022606632	26.0
2.345	387.555362017	35.0
2.3552	388.081606907	35.0
2.3654	388.606523582	30.0
2.3757	389.135242102	38.0
2.3859	389.657499458	44.0
2.3962	390.183539398	39.0
2.4064	390.703150908	31.0
2.4166	391.221450946	42.0
2.4269	391.743504905	36.0
2.4371	392.259179145	39.0
2.4474	392.778588289	45.0
2.4576	393.291650033	50.0
2.4678	393.803416837	51.0
2.4781	394.318890244	60.0
2.4883	394.828064348	55.0
2.4986	395.340926277	59.0
2.5088	395.847520817	52.0
2.519	396.352836739	53.0
2.5293	396.861812542	54.0
2.5395	397.364568446	58.0
2.5498	397.870965689	56.0
2.56	398.371174544	66.0
2.5702	398.870120899	61.0
2.5805	399.372681001	75.0
2.5907	399.869099607	65.0
2.601	400.369113652	75.0
2.6112	400.863017315	81.0
2.6214	401.355674391	82.0
2.6317	401.851899663	61.0
2.6419	402.342060852	67.0
2.6522	402.835772161	62.0
2.6624	403.323450108	73.0
2.6726	403.809897183	69.0
2.6829	404.299867476	59.0
2.6931	404.783850125	61.0
2.7034	405.271338144	72.0
2.7136	405.752868853	66.0
2.7238	406.233184204	72.0
2.7341	406.716978363	84.0
2.7443	407.194860353	67.0
2.7546	407.676203526	74.0
2.7648	408.151664483	71.0
2.775	408.625925401	65.0
2.7853	409.103621277	70.0
2.7955	409.575479507	69.0
2.8058	410.050755293	80.0
2.816	410.520223007	67.0
2.8262	410.98850581	54.0
2.8365	411.460180272	60.0
2.8467	411.926090673	68.0
2.857	412.39537555	53.0
2.8672	412.858925568	65.0
2.8774	413.32130561	66.0
2.8877	413.787034559	50.0
2.8979	414.247072104	46.0
2.9082	414.710441589	60.0
2.9184	415.168148503	39.0
2.9286	415.62470019	49.0
2.9389	416.08455857	48.0
2.9491	416.538797286	47.0
2.9594	416.996325943	43.0
2.9696	417.448263407	55.0
2.9798	417.899060205	49.0
2.9901	418.353122015	48.0
3.0003	418.801634998	41.0
3.0106	419.253396452	56.0
3.0208	419.69963719	35.0
3.031	420.14475164	33.0
3.0413	420.593089947	42.0
3.0515	421.03594937	31.0
3.0618	421.482016317	41.0
3.072	421.922632137	39.0
3.0822	422.362135867	52.0
3.0925	422.804822815	32.0
3.1027	423.242099942	46.0
3.113	423.682544162	43.0
3.1232	424.117605967	49.0
3.1334	424.551569699	47.0
3.1437	424.988676526	45.0
3.1539	425.420441722	46.0
3.1642	425.85533409	50.0
3.1744	426.284911889	53.0
3.1846	426.713405456	50.0
3.1949	427.145002499	50.0
3.2051	427.571325244	57.0
3.2154	428.000735741	65.0
3.2256	428.42489866	61.0
3.2358	428.847991015	65.0
3.2461	429.274147726	64.0
3.2563	429.695096621	50.0
3.2666	430.119094347	57.0
3.2768	430.537910643	73.0
3.287	430.955669868	53.0
3.2973	431.376454822	58.0
3.3075	431.792097606	62.0
3.3178	432.21075079	65.0
3.328	432.624287856	67.0
3.3382	433.036781176	62.0
3.3485	433.452262086	71.0
3.3587	433.862665643	70.0
3.369	434.276041654	85.0
3.3792	434.684366035	82.0
3.3894	435.091659828	59.0
3.3997	435.501903551	69.0
3.4099	435.907133922	57.0
3.4202	436.315299279	88.0
3.4304	436.718476683	89.0
3.4406	437.120636488	71.0
3.4509	437.52570904	68.0
3.4611	437.925831434	76.0
3.4714	438.328851817	100.0
3.4816	438.726947122	83.0
3.4918	439.124037655	89.0
3.5021	439.524004218	66.0
3.5123	439.919083022	82.0
3.5226	440.317023285	92.0
3.5328	440.710100551	96.0
3.543	441.10218571	85.0
3.5533	441.497110647	83.0
3.5635	441.887209435	94.0
3.5738	442.280133614	76.0
3.584	442.668256094	107.0
3.5942	443.055398973	89.0
3.6045	443.445345834	77.0
3.6147	443.83052738	94.0
3.625	444.218498702	75.0
3.6352	444.601728852	98.0
3.6454	444.983991748	92.0
3.6557	445.369023283	89.0
3.6659	445.749349569	88.0
3.6762	446.132430467	73.0
3.6864	446.510829954	93.0
3.6966	446.888274381	81.0
3.7069	447.268452547	75.0
3.7171	447.643984775	78.0
3.7274	448.022236892	76.0
3.7376	448.395866609	79.0
3.7478	448.768553304	91.0
3.7581	449.143939278	82.0
3.7683	449.514737878	81.0
3.7786	449.888222082	91.0
3.7888	450.257142151	71.0
3.799	450.625131086	81.0
3.8093	450.995785275	72.0
3.8195	451.361909914	87.0
3.8298	451.730686305	80.0
3.84	452.094956092	72.0
3.8502	452.458306483	81.0
3.8605	452.824288532	91.0
3.8707	453.185798125	72.0
3.881	453.549926046	90.0
3.8912	453.909604169	75.0
3.9014	454.268374484	76.0
3.9117	454.629743286	63.0
3.9219	454.986696008	79.0
3.9322	455.346234052	72.0
3.9424	455.70137839	61.0
3.9526	456.055626362	67.0
3.9629	456.412440067	76.0
3.9731	456.764893357	76.0
3.9834	457.119899381	64.0
3.9936	457.470567082	66.0
4.0038	457.820349716	79.0
4.0141	458.172665741	78.0
4.0243	458.520676316	76.0
4.0346	458.871207447	64.0
4.0448	459.217454939	77.0
4.055	459.562828522	82.0
4.0653	459.910703561	57.0
4.0755	460.254327421	83.0
4.0858	460.600440065	76.0
4.096	460.942323066	84.0
4.1062	461.283343173	73.0
4.1165	461.626833206	59.0
4.1267	461.966125646	67.0
4.137	462.307875498	62.0
4.1472	462.645449024	69.0
4.1574	462.982170531	80.0
4.1677	463.321330831	71.0
4.1779	463.656346449	83.0
4.1882	463.993788504	70.0
4.1984	464.327106875	92.0
4.2086	464.659583968	60.0
4.2189	464.994469112	76.0
4.2291	465.325261818	81.0
4.2394	465.658450375	78.0
4.2496	465.987567228	65.0
4.2598	466.315853407	78.0
4.2701	466.646517284	76.0
4.2803	466.973140308	66.0
4.2906	467.302128984	75.0
4.3008	467.627097279	88.0
4.311	467.951245372	68.0
4.3213	468.277741191	63.0
4.3315	468.600247093	56.0
4.3418	468.925088827	69.0
4.352	469.245960858	80.0
4.3622	469.566023026	66.0
4.3725	469.888403325	93.0
4.3827	470.206844002	61.0
4.393	470.527591067	64.0
4.4032	470.844418468	57.0
4.4134	471.160446214	80.0
4.4237	471.478762871	60.0
4.4339	471.793189565	69.0
4.4442	472.109893575	76.0
4.4544	472.422727329	55.0
4.4646	472.734771507	74.0
4.4749	473.049075745	74.0
4.4851	473.359539052	70.0
4.4954	473.672250971	92.0
4.5056	473.981141417	78.0
4.5158	474.289252241	64.0
4.5261	474.599594637	70.0
4.5363	474.906144517	61.0
4.5466	475.214914664	74.0
4.5568	475.51991151	64.0
4.567	475.82413856	64.0
4.5773	476.130569052	76.0
4.5875	476.433254835	67.0
4.5978	476.738132897	70.0
4.608	477.039285221	61.0
4.6182	477.339677453	59.0
4.6285	477.642245352	56.0
4.6387	477.941115745	57.0
4.649	478.242150783	54.0
4.6592	478.539507045	69.0
4.6694	478.836112797	69.0
4.6797	479.134866792	70.0
4.6899	479.429969887	57.0
4.7002	479.727210342	66.0
4.7104	480.020818394	70.0
4.7206	480.313685394	84.0
4.7309	480.608673559	69.0
4.7411	480.900056845	64.0
4.7514	481.193550549	75.0
4.7616	481.483457636	68.0
4.7718	481.772633012	61.0
4.7821	482.063902816	69.0
4.7923	482.351613181	63.0
4.8026	482.641407361	58.0
4.8128	482.927660135	68.0
4.823	483.213190421	55.0
4.8333	483.500788735	47.0
4.8435	483.784872475	43.0
4.8538	484.071013766	56.0
4.864	484.353658288	58.0
4.8742	484.635589432	60.0
4.8845	484.919562534	69.0
4.8947	485.200065365	61.0
4.905	485.48259981	46.0
4.9152	485.761681565	58.0
4.9254	486.040058932	56.0
4.9357	486.32045252	59.0
4.9459	486.597419579	51.0
4.9562	486.876392644	56.0
4.9664	487.15195654	64.0
4.9766	487.426824927	56.0
4.9869	487.70368412	57.0
4.9971	487.977159976	59.0
5.0074	488.252616552	43.0
5.0176	488.524706932	47.0
5.0278	488.79611057	58.0
5.0381	489.06947992	56.0
5.0483	489.33950858	68.0
5.0586	489.611492993	59.0
5.0688	489.880153641	46.0
5.079	490.148136205	63.0
5.0893	490.418059701	50.0
5.0995	490.684684617	46.0
5.1098	490.953240634	48.0
5.12	491.218514783	60.0
5.1302	491.483119394	59.0
5.1405	491.749640472	59.0
5.1507	492.01290455	72.0
5.161	492.278075386	54.0
5.1712	492.540005722	72.0
5.1814	492.80127496	42.0
5.1917	493.064436508	55.0
5.2019	493.324382111	50.0
5.2122	493.586210437	45.0
5.2224	493.84483911	67.0
5.2326	494.102815018	55.0
5.2429	494.362659383	55.0
5.2531	494.61932834	48.0
5.2634	494.877856289	61.0
5.2736	495.133224917	49.0
5.2838	495.387949008	46.0
5.2941	495.644518003	50.0
5.3043	495.897951618	47.0
5.3146	496.153220791	55.0
5.3248	496.405370466	56.0
5.335	496.65688373	50.0
5.3453	496.910218643	49.0
5.3555	497.160457696	48.0
5.3658	497.41250917	54.0
5.376	497.661480469	41.0
5.3862	497.909823378	50.0
5.3965	498.159964974	65.0
5.4067	498.407049734	61.0
5.417	498.655924069	59.0
5.4272	498.901757055	51.0
5.4374	499.146969571	51.0
5.4477	499.393958103	63.0
5.4579	499.63792833	53.0
5.4682	499.883665575	49.0
5.4784	500.126399806	59.0
5.4886	500.36852139	49.0
5.4989	500.612396601	62.0
5.5091	500.853291554	68.0
5.5194	501.095931251	46.0
5.5296	501.335605789	70.0
5.5398	501.574675401	53.0
5.5501	501.815476536	49.0
5.5603	502.05333498	42.0
5.5706	502.292916174	57.0
5.5808	502.529569586	56.0
5.591	502.765625697	41.0
5.6013	503.003391505	48.0
5.6115	503.238251714	45.0
5.6218	503.474812959	42.0
5.632	503.708483326	45.0
5.6422	503.941563921	46.0
5.6525	504.176332663	45.0
5.6627	504.408232431	41.0
5.673	504.641811794	56.0
5.6832	504.872536718	41.0
5.6934	505.102679304	39.0
5.7037	505.334488758	45.0
5.7139	505.563465402	62.0
5.7242	505.794100468	44.0
5.7344	506.021917077	46.0
5.7446	506.249158688	39.0
5.7549	506.478046156	43.0
5.7651	506.704136522	42.0
5.7754	506.931864406	41.0
5.7856	507.156809359	45.0
5.7958	507.381186563	46.0
5.8061	507.607188877	48.0
5.8163	507.830429347	43.0
5.8266	508.055286693	49.0
5.8368	508.277396188	37.0
5.847	508.498945091	28.0
5.8573	508.722098618	43.0
5.8675	508.942525116	37.0
5.8778	509.164548109	40.0
5.888	509.383857887	42.0
5.8982	509.602614139	40.0
5.9085	509.822954789	44.0
5.9187	510.040602784	27.0
5.929	510.259827151	33.0
5.9392	510.476372503	47.0
5.9494	510.692371306	26.0
5.9597	510.909934537	34.0
5.9699	511.124839053	32.0
5.9802	511.34130007	31.0
5.9904	511.555115842	34.0
6.0006	511.768391954	28.0
6.0109	511.983212774	30.0
6.0211	512.195408393	29.0
6.0314	512.409140893	33.0
6.0416	512.620261492	20.0
6.0518	512.830849233	27.0
6.0621	513.042962211	24.0
6.0723	513.252483079	23.0
6.0826	513.463521455	23.0
6.0928	513.671980853	19.0
6.103	513.879914111	24.0
6.1133	514.08935338	11.0
6.1235	514.296233212	18.0
6.1338	514.504611424	11.0
6.144	514.710443167	21.0
6.1542	514.915755401	26.0
6.1645	515.122554662	22.0
6.1747	515.326826749	17.0
6.185	515.532578329	21.0
6.1952	515.735815538	23.0
6.2054	515.938539787	22.0
6.2157	516.142732319	13.0
6.2259	516.344429532	16.0
6.2362	516.547587589	24.0
6.2464	516.748262969	21.0
6.2566	516.948431854	16.0
6.2669	517.150050515	17.0
6.2771	517.34920531	17.0
6.2874	517.549802535	14.0
6.2976	517.747948378	15.0
6.3078	517.945594111	19.0
6.3181	518.144671344	20.0
6.3283	518.341315769	13.0
6.3386	518.539384442	16.0
6.3488	518.735032633	11.0
6.359	518.930187018	13.0
6.3693	519.126754858	13.0
6.3795	519.320920557	9.0
6.3898	519.516492551	11.0
6.4	519.709674573	13.0
6.4102	519.902369013	10.0
6.4205	520.096459093	4.0
6.4307	520.28817731	9.0
6.441	520.481284095	9.0
6.4512	520.672031034	3.0
6.4614	520.862296538	9.0
6.4717	521.053940089	9.0
6.4819	521.243241675	7.0
6.4922	521.433914327	7.0
6.5024	521.622256878	5.0
6.5126	521.810124062	7.0
6.5229	521.999351923	6.0
6.5331	522.18626734	6.0
6.5434	522.37453654	5.0
6.5536	522.560505011	4.0
6.5638	522.746004107	3.0
6.5741	522.932846728	9.0
6.5843	523.117406054	3.0
6.5946	523.303302098	7.0
6.6048	523.486926413	3.0
6.615	523.670087271	10.0
6.6253	523.854574719	5.0
6.6355	524.036807652	1.0
6.6458	524.220360454	4.0
6.656	524.401670164	5.0
6.6662	524.582522257	3.0
6.6765	524.764684219	2.0
6.6867	524.944620084	6.0
6.697	525.125859181	4.0
6.7072	525.30488346	6.0
6.7174	525.483455891	6.0
6.7277	525.663321679	3.0
6.7379	525.840989431	2.0
6.7482	526.019943988	3.0
6.7584	526.196711644	5.0
6.7686	526.373033148	5.0
6.7789	526.550631707	3.0
6.7891	526.726059935	3.0
6.7994	526.902758748	2.0
6.8096	527.077298227	3.0
6.8198	527.251397178	4.0
6.8301	527.426757085	2.0
6.8403	527.59997402	0.0
6.8506	527.774445524	0.0
6.8608	527.946784912	2.0
6.871	528.118689324	3.0
6.8813	528.291838799	2.0
6.8915	528.462872313	2.0
6.9018	528.635144583	2.0
6.912	528.805311612	3.0
6.9222	528.975049149	0.0
6.9325	529.146016053	4.0
6.9427	529.31489367	3.0
6.953	529.484994427	2.0
6.9632	529.653016481	3.0
6.9734	529.820614455	3.0
6.9837	529.989426302	4.0
6.9939	530.156175196	2.0
7.0042	530.324131813	3.0
7.0144	530.490035928	2.0
7.0246	530.65552131	1.0
7.0349	530.822205263	0.0
7.0451	530.986852268	1.0
7.0554	531.152691771	4.0
7.0656	531.316504645	0.0
7.0758	531.479904064	2.0
7.0861	531.644486946	3.0
7.0963	531.807058556	0.0
7.1066	531.970807632	1.0
7.1168	532.132555625	1.0
7.127	532.293895375	1.0
7.1373	532.45640367	0.0
7.1475	532.616926045	2.0
7.1578	532.778611045	2.0
7.168	532.938320185	0.0
7.1782	533.097626228	2.0
7.1885	533.258086087	2.0
7.1987	533.416585058	0.0
7.209	533.576231999	0.0
7.2192	533.733927986	0.0
7.2294	533.891225958	3.0
7.2397	534.0496632	1.0
7.2499	534.206164273	0.0
7.2602	534.363798845	0.0
7.2704	534.519507056	1.0
7.2806	534.674822268	2.0
7.2909	534.83126239	0.0
7.3011	534.985790748	1.0
7.3114	535.141438317	3.0
7.3216	535.295183807	1.0
7.3318	535.448541252	1.0
7.3421	535.603009428	1.0
7.3523	535.755589938	0.0
7.3626	535.909275551	0.0
7.3728	536.061083061	2.0
7.383	536.212507417	0.0
7.3933	536.365028503	1.0
7.4035	536.515685717	3.0
7.4138	536.667434104	0.0
7.424	536.817328062	1.0
7.4342	536.966843696	1.0
7.4445	537.117442236	2.0
7.4547	537.266200397	3.0
7.465	537.416035978	0.0
7.4752	537.564040505	0.0
7.4854	537.711671477	0.0
7.4957	537.860371703	2.0
7.5059	538.007254751	1.0
7.5162	538.155201636	6.0
7.5264	538.301340548	2.0
7.5366	538.447110614	1.0
7.5469	538.593936456	0.0
7.5571	538.738968025	1.0
7.5674	538.885050023	0.0
7.5776	539.029346836	3.0
7.5878	539.173279453	0.0
7.5981	539.318254538	3.0
7.6083	539.461457966	0.0
7.6186	539.605698583	2.0
7.6288	539.748176518	1.0
7.639	539.890294846	2.0
7.6493	540.033442503	1.0
7.6595	540.174840836	3.0
7.6698	540.317263282	3.0
7.68	540.457945265	0.0
7.6902	540.598272175	4.0
7.7005	540.739615439	2.0
7.7107	540.879231428	1.0
7.721	541.019858622	1.0
7.7312	541.158767293	1.0
7.7414	541.297325365	1.0
7.7517	541.43688698	1.0
7.7619	541.574743093	2.0
7.7722	541.713597665	1.0
7.7824	541.850755375	1.0
7.7926	541.987566906	0.0
7.8029	542.12536933	1.0
7.8131	542.261487751	1.0
7.8234	542.398592044	2.0
7.8336	542.534020864	0.0
7.8438	542.66910787	1.0
7.8541	542.805173278	1.0
7.8643	542.939575909	1.0
7.8746	543.074951986	2.0
7.8848	543.20867371	2.0
7.895	543.342057928	1.0
7.9053	543.476408215	2.0
7.9155	543.609116686	1.0
7.9258	543.742786331	0.0
7.936	543.874822477	2.0
7.9462	544.006525371	1.0
7.9565	544.139182156	0.0
7.9667	544.27021782	0.0
7.977	544.402202544	3.0
7.9872	544.532574358	2.0
7.9974	544.662617121	1.0
8.0077	544.793601752	0.0
8.0179	544.922985696	3.0
