TL-DOS Lehrstuhlversuch
detector=R1408201
job_number=2015-10-23-001
irradiation_dose [mSv]=4.0

[BEGIN DATA]
time [sec] 	 temperature [K] 	 photoncount 
0.0	170.003523947	0.0
0.0102	172.232408023	0.0
0.0205	174.469370817	0.0
0.0307	176.671059488	0.0
0.041	178.880728305	2.0
0.0512	181.055553392	2.0
0.0614	183.217134573	1.0
0.0717	185.38655053	2.0
0.0819	187.521757493	0.0
0.0922	189.664703636	1.0
0.1024	191.773858181	1.0
0.1126	193.870168732	2.0
0.1229	195.974077481	0.0
0.1331	198.044810203	3.0
0.1434	200.123048415	1.0
0.1536	202.168515393	0.0
0.1638	204.20152621	2.0
0.1741	206.241905792	2.0
0.1843	208.250111124	1.0
0.1946	210.26559531	0.0
0.2048	212.249297816	0.0
0.215	214.220920286	0.0
0.2253	216.199689014	0.0
0.2355	218.147255018	0.0
0.2458	220.101880087	0.0
0.256	222.025683147	0.0
0.2662	223.937770937	0.0
0.2765	225.856789199	0.0
0.2867	227.745546927	0.0
0.297	229.641150567	0.0
0.3072	231.506862892	0.0
0.3174	233.361213699	0.0
0.3277	235.222285707	0.0
0.3379	237.054010922	1.0
0.3482	238.89237533	0.0
0.3584	240.701751015	0.0
0.3686	242.500108252	0.0
0.3789	244.304983738	0.0
0.3891	246.081398581	0.0
0.3994	247.86425214	0.0
0.4096	249.618992315	0.0
0.4198	251.363046752	0.0
0.4301	253.113422614	0.0
0.4403	254.836197223	0.0
0.4506	256.565216128	0.0
0.4608	258.266970554	0.0
0.471	259.958361906	0.0
0.4813	261.655883802	0.0
0.4915	263.326637888	0.0
0.5018	265.003447718	0.0
0.512	266.65381634	0.0
0.5222	268.29413481	0.0
0.5325	269.940398708	0.0
0.5427	271.56070307	0.0
0.553	273.186880319	0.0
0.5632	274.787414772	1.0
0.5734	276.378202546	0.0
0.5837	277.97475622	0.0
0.5939	279.546134228	0.0
0.6042	281.123207785	0.0
0.6144	282.675412852	0.0
0.6246	284.218165547	0.0
0.6349	285.766510037	3.0
0.6451	287.290439059	0.0
0.6554	288.819891649	1.0
0.6656	290.325226673	0.0
0.6758	291.821394746	0.0
0.6861	293.322985766	0.0
0.6963	294.800898562	1.0
0.7066	296.284168137	1.0
0.7168	297.744048395	0.0
0.727	299.195038505	1.0
0.7373	300.651287812	0.0
0.7475	302.084573878	2.0
0.7578	303.523054971	2.0
0.768	304.938853005	1.0
0.7782	306.346029336	1.0
0.7885	307.758306059	1.0
0.7987	309.148312933	3.0
0.809	310.543357967	1.0
0.8192	311.916404874	4.0
0.8294	313.281090418	4.0
0.8397	314.650722343	6.0
0.8499	315.998756874	8.0
0.8602	317.351677434	3.0
0.8704	318.683264118	6.0
0.8806	320.006741917	6.0
0.8909	321.335016737	5.0
0.9011	322.642346314	3.0
0.9114	323.954414382	8.0
0.9216	325.245792767	5.0
0.9318	326.529307121	11.0
0.9421	327.817473646	16.0
0.9523	329.085327386	14.0
0.9626	330.357776534	17.0
0.9728	331.610160741	14.0
0.983	332.854918377	13.0
0.9933	334.104187709	17.0
1.0035	335.333757615	22.0
1.0138	336.567784168	25.0
1.024	337.782351657	15.0
1.0342	338.989522864	22.0
1.0445	340.201069533	27.0
1.0547	341.393511617	41.0
1.065	342.590275775	36.0
1.0752	343.76816845	38.0
1.0854	344.938888181	39.0
1.0957	346.113851253	39.0
1.1059	347.270286617	36.0
1.1162	348.430913548	49.0
1.1264	349.573238834	45.0
1.1366	350.708607769	56.0
1.1469	351.848091914	53.0
1.1571	352.96960781	61.0
1.1674	354.095188704	71.0
1.1776	355.203020587	80.0
1.1878	356.304106171	78.0
1.1981	357.409182702	92.0
1.2083	358.496833551	85.0
1.2186	359.588426651	95.0
1.2288	360.662806686	127.0
1.239	361.730644131	122.0
1.2493	362.802352014	112.0
1.2595	363.857160396	132.0
1.2698	364.915791991	167.0
1.28	365.957730282	180.0
1.2902	366.993323542	178.0
1.3005	368.03267037	183.0
1.3107	369.055627989	212.0
1.321	370.082293377	230.0
1.3312	371.092769528	235.0
1.3414	372.097092241	245.0
1.3517	373.10505518	259.0
1.3619	374.097123796	284.0
1.3722	375.092788221	285.0
1.3824	376.072752256	310.0
1.3926	377.046748661	359.0
1.4029	378.024275372	373.0
1.4131	378.986387702	391.0
1.4234	379.951987263	426.0
1.4336	380.902360518	454.0
1.4438	381.846946342	450.0
1.4541	382.794955871	540.0
1.4643	383.728016468	533.0
1.4746	384.664458996	565.0
1.4848	385.58613499	581.0
1.495	386.502198308	632.0
1.5053	387.421581949	656.0
1.5155	388.326468053	693.0
1.5258	389.234633968	743.0
1.536	390.128479236	741.0
1.5462	391.016881307	772.0
1.5565	391.908503441	827.0
1.5667	392.786065803	823.0
1.577	393.66680894	895.0
1.5872	394.533663852	924.0
1.5974	395.395239929	913.0
1.6077	396.259938838	914.0
1.6179	397.111002519	1004.0
1.6282	397.965150929	1027.0
1.6384	398.805830481	1020.0
1.6486	399.641390596	1011.0
1.6589	400.479979246	1052.0
1.6691	401.305344395	1062.0
1.6794	402.133701127	1058.0
1.6896	402.948995704	1109.0
1.6998	403.759325429	1051.0
1.7101	404.57259224	1095.0
1.7203	405.373034844	1093.0
1.7306	406.176378699	1055.0
1.7408	406.967054819	1089.0
1.751	407.752916005	1014.0
1.7613	408.541625591	1015.0
1.7715	409.317898206	992.0
1.7818	410.096984466	876.0
1.792	410.863785503	875.0
1.8022	411.625916998	888.0
1.8125	412.390810882	878.0
1.8227	413.143643339	870.0
1.833	413.899204482	775.0
1.8432	414.642851363	780.0
1.8534	415.381969703	726.0
1.8637	416.123767019	720.0
1.8739	416.853867113	689.0
1.8842	417.586613496	616.0
1.8944	418.30780538	621.0
1.9046	419.024605464	554.0
1.9149	419.744003631	576.0
1.9251	420.452057783	558.0
1.9354	421.162678318	570.0
1.9456	421.86209325	520.0
1.9558	422.557248996	462.0
1.9661	423.254924374	467.0
1.9763	423.941598278	468.0
1.9866	424.630761071	481.0
1.9968	425.309056624	485.0
2.007	425.983221599	456.0
2.0173	426.659830125	507.0
2.0275	427.325769375	502.0
2.0378	427.994122359	515.0
2.048	428.651936248	458.0
2.0582	429.305744286	494.0
2.0685	429.961922089	503.0
2.0787	430.607752783	543.0
2.089	431.255924328	541.0
2.0992	431.893875013	542.0
2.1094	432.527940807	599.0
2.1197	433.164304809	604.0
2.1299	433.790634141	648.0
2.1402	434.41923364	630.0
2.1504	435.037920907	615.0
2.1606	435.652840589	665.0
2.1709	436.269989083	685.0
2.1811	436.877405913	715.0
2.1914	437.487024359	705.0
2.2016	438.087029881	749.0
2.2118	438.683381583	776.0
2.2221	439.281894797	784.0
2.2323	439.870970201	790.0
2.2426	440.462180743	799.0
2.2528	441.044068629	773.0
2.263	441.622413027	811.0
2.2733	442.202853667	833.0
2.2835	442.77414148	788.0
2.2938	443.347499958	855.0
2.304	443.911817285	820.0
2.3142	444.472698122	813.0
2.3245	445.035611904	809.0
2.3347	445.589649236	908.0
2.345	446.145694707	883.0
2.3552	446.692972032	872.0
2.3654	447.236916635	904.0
2.3757	447.782832796	881.0
2.3859	448.320140537	827.0
2.3962	448.859395782	854.0
2.4064	449.390147641	823.0
2.4166	449.917667412	903.0
2.4269	450.447099208	858.0
2.4371	450.968182523	879.0
2.4474	451.491154534	863.0
2.4576	452.005879927	824.0
2.4678	452.517470827	851.0
2.4781	453.030916017	819.0
2.4883	453.536264814	775.0
2.4986	454.043445278	822.0
2.5088	454.542628135	767.0
2.519	455.038771148	824.0
2.5293	455.53671246	820.0
2.5395	456.026801856	827.0
2.5498	456.51866761	770.0
2.56	457.002777251	770.0
2.5702	457.483938839	752.0
2.5805	457.966844424	693.0
2.5907	458.442135189	772.0
2.601	458.919148672	748.0
2.6112	459.388640245	703.0
2.6214	459.855272783	775.0
2.6317	460.323596657	704.0
2.6419	460.784535646	707.0
2.6522	461.247145334	696.0
2.6624	461.702460243	710.0
2.6726	462.155002447	662.0
2.6829	462.609184917	732.0
2.6931	463.056205493	693.0
2.7034	463.504846321	666.0
2.7136	463.946412641	705.0
2.7238	464.38528998	648.0
2.7341	464.825758055	614.0
2.7443	465.259280496	677.0
2.7546	465.694374264	694.0
2.7648	466.122607144	693.0
2.775	466.54823224	619.0
2.7853	466.975400038	669.0
2.7955	467.39583193	623.0
2.8058	467.817787702	701.0
2.816	468.233089756	682.0
2.8262	468.64586277	669.0
2.8365	469.060131903	694.0
2.8467	469.467868526	649.0
2.857	469.877083014	638.0
2.8672	470.279844699	663.0
2.8774	470.680153709	699.0
2.8877	471.081913662	641.0
2.8979	471.47733836	714.0
2.9082	471.874196297	685.0
2.9184	472.264796278	656.0
2.9286	472.653017645	676.0
2.9389	473.042646143	658.0
2.9491	473.426130684	647.0
2.9594	473.811005186	641.0
2.9696	474.189810695	640.0
2.9798	474.566309415	665.0
2.9901	474.944172777	636.0
3.0003	475.316077702	630.0
3.0106	475.689330618	602.0
3.0208	476.0566978	618.0
3.031	476.421827847	594.0
3.0413	476.788281329	644.0
3.0515	477.148956295	631.0
3.0618	477.510938548	657.0
3.072	477.867212791	602.0
3.0822	478.221317452	628.0
3.0925	478.576705585	606.0
3.1027	478.926489689	631.0
3.113	479.277541605	581.0
3.1232	479.623057869	617.0
3.1334	479.966470063	672.0
3.1437	480.311126974	606.0
3.1539	480.650349074	609.0
3.1642	480.990800704	644.0
3.1744	481.325883835	558.0
3.1846	481.65892643	613.0
3.1949	481.993176156	633.0
3.2051	482.32215518	564.0
3.2154	482.652326607	613.0
3.2256	482.977291641	572.0
3.2358	483.300277755	579.0
3.2461	483.62443455	596.0
3.2563	483.943479796	579.0
3.2666	484.263681439	583.0
3.2768	484.5788339	586.0
3.287	484.892067196	558.0
3.2973	485.206435824	549.0
3.3075	485.515847249	538.0
3.3178	485.826380154	537.0
3.328	486.132016341	551.0
3.3382	486.435791313	549.0
3.3485	486.740667334	584.0
3.3587	487.04073584	556.0
3.369	487.341891961	528.0
3.3792	487.638299225	589.0
3.3894	487.932901475	564.0
3.3997	488.228571527	558.0
3.4099	488.51957923	590.0
3.4202	488.811641707	561.0
3.4304	489.099098722	539.0
3.4406	489.384805227	535.0
3.4509	489.671547291	552.0
3.4611	489.953767789	536.0
3.4714	490.237011212	536.0
3.4816	490.515788238	509.0
3.4918	490.792867612	529.0
3.5021	491.070951276	546.0
3.5123	491.344649906	527.0
3.5226	491.619340573	530.0
3.5328	491.889699709	507.0
3.543	492.158412455	559.0
3.5533	492.428099165	522.0
3.5635	492.693533252	483.0
3.5738	492.959929419	536.0
3.584	493.22212485	503.0
3.5942	493.482723605	553.0
3.6045	493.744266915	539.0
3.6147	494.001686012	510.0
3.625	494.260038139	533.0
3.6352	494.514316374	526.0
3.6454	494.767046146	566.0
3.6557	495.020691952	502.0
3.6659	495.270338078	507.0
3.6762	495.520889061	442.0
3.6864	495.767489167	504.0
3.6966	496.012587566	540.0
3.7069	496.258574339	514.0
3.7171	496.500682205	519.0
3.7274	496.743667606	527.0
3.7376	496.982821429	554.0
3.7478	497.220518891	520.0
3.7581	497.459077901	547.0
3.7683	497.693875131	497.0
3.7786	497.929523398	556.0
3.7888	498.161455785	554.0
3.799	498.391975786	514.0
3.8093	498.623331321	508.0
3.8195	498.851038666	561.0
3.8298	499.079571349	532.0
3.84	499.304500356	541.0
3.8502	499.528059626	496.0
3.8605	499.7524292	482.0
3.8707	499.973260744	564.0
3.881	500.194892705	523.0
3.8912	500.413029805	530.0
3.9014	500.629838528	520.0
3.9117	500.847433088	514.0
3.9219	501.061596451	493.0
3.9322	501.276536062	524.0
3.9424	501.488086342	526.0
3.9526	501.698348357	525.0
3.9629	501.909372478	484.0
3.9731	502.117069012	462.0
3.9834	502.325518353	482.0
3.9936	502.530680707	479.0
4.0038	502.734593697	515.0
4.0141	502.93924578	482.0
4.0243	503.140670755	476.0
4.0346	503.342825805	481.0
4.0448	503.541793122	488.0
4.055	503.7395488	442.0
4.0653	503.938021254	421.0
4.0755	504.133364044	425.0
4.0858	504.329414865	446.0
4.096	504.522374209	423.0
4.1062	504.714158499	411.0
4.1165	504.906637922	432.0
4.1267	505.096082185	399.0
4.137	505.286213098	473.0
4.1472	505.473345884	419.0
4.1574	505.659339098	383.0
4.1677	505.846006455	382.0
4.1779	506.0297303	392.0
4.1882	506.214120062	389.0
4.1984	506.395602227	370.0
4.2086	506.575979231	329.0
4.2189	506.757010021	372.0
4.2291	506.935186181	367.0
4.2394	507.114008151	346.0
4.2496	507.29001032	308.0
4.2598	507.4649407	346.0
4.2701	507.640505124	321.0
4.2803	507.813301116	314.0
4.2906	507.986723417	294.0
4.3008	508.157411063	314.0
4.311	508.327059283	305.0
4.3213	508.497322403	260.0
4.3315	508.664900685	264.0
4.3418	508.833086364	274.0
4.352	508.998619963	284.0
4.3622	509.163145523	239.0
4.3725	509.328267415	248.0
4.3827	509.49078554	270.0
4.393	509.653892721	228.0
4.4032	509.814427904	238.0
4.4134	509.973985486	187.0
4.4237	510.134121394	211.0
4.4339	510.291732157	173.0
4.4442	510.44991419	181.0
4.4544	510.605601888	195.0
4.4646	510.760341504	191.0
4.4749	510.915641983	200.0
4.4851	511.068493566	176.0
4.4954	511.221899169	178.0
4.5056	511.372885756	177.0
4.5158	511.522952888	144.0
4.5261	511.673563948	162.0
4.5363	511.821800058	143.0
4.5466	511.970573459	138.0
4.5568	512.117000888	153.0
4.567	512.262536626	130.0
4.5773	512.408599868	143.0
4.5875	512.552359873	129.0
4.5978	512.696640945	120.0
4.608	512.838646883	105.0
4.6182	512.979788056	127.0
4.6285	513.121440804	123.0
4.6387	513.260859864	101.0
4.649	513.400784256	89.0
4.6592	513.538502214	96.0
4.6694	513.67538152	95.0
4.6797	513.812756952	82.0
4.6899	513.947966144	83.0
4.7002	514.08366541	77.0
4.7104	514.217224867	91.0
4.7206	514.349970995	63.0
4.7309	514.483198269	63.0
4.7411	514.614324715	63.0
4.7514	514.745926435	64.0
4.7616	514.87545296	57.0
4.7718	515.004190715	58.0
4.7821	515.133395088	56.0
4.7923	515.260562068	58.0
4.8026	515.388189972	61.0
4.8128	515.513805342	34.0
4.823	515.63865576	53.0
4.8333	515.763958706	45.0
4.8435	515.887285779	39.0
4.8538	516.011059859	58.0
4.864	516.132882176	28.0
4.8742	516.253962638	33.0
4.8845	516.375481963	24.0
4.8947	516.49508508	31.0
4.905	516.615121705	31.0
4.9152	516.733265501	26.0
4.9254	516.850689844	33.0
4.9357	516.968539799	33.0
4.9459	517.084531406	22.0
4.9562	517.200943431	28.0
4.9664	517.315519783	24.0
4.9766	517.429398407	33.0
4.9869	517.54368979	21.0
4.9971	517.65617894	27.0
5.0074	517.769075813	14.0
5.0176	517.880192443	17.0
5.0278	517.990632413	16.0
5.0381	518.101472678	16.0
5.0483	518.21056513	16.0
5.0586	518.320052995	15.0
5.0688	518.427814371	23.0
5.079	518.53491952	8.0
5.0893	518.642412877	12.0
5.0995	518.748211197	11.0
5.1098	518.85439299	11.0
5.12	518.958900428	15.0
5.1302	519.062771453	14.0
5.1405	519.167018964	15.0
5.1507	519.269622622	6.0
5.161	519.372598172	7.0
5.1712	519.473949926	11.0
5.1814	519.574684485	11.0
5.1917	519.675784161	11.0
5.2019	519.775289621	14.0
5.2122	519.875155745	10.0
5.2224	519.973447103	7.0
5.2326	520.071139903	13.0
5.2429	520.169186796	11.0
5.2531	520.265687611	11.0
5.2634	520.362538199	8.0
5.2736	520.457861573	14.0
5.2838	520.552604462	7.0
5.2941	520.647690753	5.0
5.3043	520.741277651	8.0
5.3146	520.835203759	11.0
5.3248	520.92764877	6.0
5.335	521.019530824	5.0
5.3453	521.111745909	6.0
5.3555	521.202506878	7.0
5.3658	521.293596814	5.0
5.376	521.383250376	8.0
5.3862	521.472357979	6.0
5.3965	521.561788558	5.0
5.4067	521.649808928	3.0
5.417	521.738148333	6.0
5.4272	521.825094736	7.0
5.4374	521.911511665	10.0
5.4477	521.998241818	12.0
5.4579	522.083604345	3.0
5.4682	522.169276272	5.0
5.4784	522.25359726	5.0
5.4886	522.337404763	6.0
5.4989	522.421516032	5.0
5.5091	522.50430097	7.0
5.5194	522.587385967	5.0
5.5296	522.669160816	3.0
5.5398	522.750437687	4.0
5.5501	522.83200915	7.0
5.5603	522.912294332	5.0
5.5706	522.992870512	9.0
5.5808	523.072176107	5.0
5.591	523.150998758	0.0
5.6013	523.230107107	4.0
5.6115	523.307968016	5.0
5.6218	523.386111136	2.0
5.632	523.463022036	6.0
5.6422	523.539464576	4.0
5.6525	523.616184187	3.0
5.6627	523.691694024	6.0
5.673	523.767477552	7.0
5.6832	523.842066067	5.0
5.6934	523.916200365	2.0
5.7037	523.990603367	3.0
5.7139	524.063833126	4.0
5.7242	524.137328311	1.0
5.7344	524.209664568	10.0
5.7446	524.281560323	2.0
5.7549	524.353716668	2.0
5.7651	524.424735198	3.0
5.7754	524.496011138	2.0
5.7856	524.566163145	5.0
5.7958	524.635887952	4.0
5.8061	524.70586548	5.0
5.8163	524.77473955	2.0
5.8266	524.843863257	2.0
5.8368	524.91189697	4.0
5.847	524.979516381	1.0
5.8573	525.047380883	3.0
5.8675	525.114175247	2.0
5.8778	525.18121171	6.0
5.888	525.247191091	6.0
5.8982	525.312768682	4.0
5.9085	525.378583963	6.0
5.9187	525.443361418	7.0
5.929	525.508373663	4.0
5.9392	525.572360746	3.0
5.9494	525.63595817	3.0
5.9597	525.699786107	5.0
5.9699	525.762607556	2.0
5.9802	525.825656705	3.0
5.9904	525.887711648	5.0
6.0006	525.949388699	3.0
6.0109	526.011289301	2.0
6.0211	526.072213808	2.0
6.0314	526.133359139	3.0
6.0416	526.193540284	2.0
6.0518	526.253354948	2.0
6.0621	526.313386413	3.0
6.0723	526.372471257	3.0
6.0826	526.431770257	3.0
6.0928	526.490134186	1.0
6.103	526.548142699	3.0
6.1133	526.606361467	7.0
6.1235	526.663662198	7.0
6.1338	526.721170619	4.0
6.144	526.777772203	3.0
6.1542	526.834029104	2.0
6.1645	526.890489911	1.0
6.1747	526.946060402	1.0
6.185	527.001832311	6.0
6.1952	527.056724766	2.0
6.2054	527.111282946	3.0
6.2157	527.166038875	4.0
6.2259	527.219931371	5.0
6.2362	527.274019204	1.0
6.2464	527.327254138	2.0
6.2566	527.380164891	5.0
6.2669	527.433267423	4.0
6.2771	527.485532593	0.0
6.2874	527.537987201	1.0
6.2976	527.589614665	1.0
6.3078	527.640927737	4.0
6.3181	527.692426796	3.0
6.3283	527.743113778	2.0
6.3386	527.793984479	5.0
6.3488	527.844053011	6.0
6.359	527.893816645	3.0
6.3693	527.943760649	2.0
6.3795	527.992917099	1.0
6.3898	528.042251719	1.0
6.4	528.090808393	2.0
6.4102	528.139069375	1.0
6.4205	528.187505281	2.0
6.4307	528.235177413	3.0
6.441	528.283022336	1.0
6.4512	528.330112803	2.0
6.4614	528.376916507	0.0
6.4717	528.423889853	1.0
6.4819	528.470122488	2.0
6.4922	528.516522696	2.0
6.5024	528.56219123	2.0
6.5126	528.607581659	3.0
6.5229	528.653136609	3.0
6.5331	528.697973213	4.0
6.5434	528.742972331	1.0
6.5536	528.787261868	8.0
6.5638	528.831281697	2.0
6.5741	528.87546108	2.0
6.5843	528.918943808	3.0
6.5946	528.962584142	4.0
6.6048	529.005536322	5.0
6.615	529.048226938	1.0
6.6253	529.09107229	5.0
6.6355	529.133242023	2.0
6.6458	529.175564603	2.0
6.656	529.217219808	4.0
6.6662	529.258621348	0.0
6.6765	529.300172951	0.0
6.6867	529.341069336	1.0
6.697	529.382113953	3.0
6.7072	529.422511347	1.0
6.7174	529.462662735	3.0
6.7277	529.502959654	1.0
6.7379	529.542621142	1.0
6.7482	529.582426384	2.0
6.7584	529.621603947	0.0
6.7686	529.660542933	4.0
6.7789	529.699623055	4.0
6.7891	529.738086933	5.0
6.7994	529.776690225	2.0
6.8096	529.814684791	4.0
6.8198	529.852447984	4.0
6.8301	529.890348051	0.0
6.8403	529.927650482	1.0
6.8506	529.965088117	5.0
6.8608	530.001935408	6.0
6.871	530.038558311	3.0
6.8813	530.075313957	1.0
6.8915	530.111490012	0.0
6.9018	530.147797188	4.0
6.912	530.183531846	2.0
6.9222	530.219048893	3.0
6.9325	530.254694673	0.0
6.9427	530.289778363	4.0
6.953	530.324989217	2.0
6.9632	530.359644839	2.0
6.9734	530.39408942	2.0
6.9837	530.428658848	1.0
6.9939	530.462683159	2.0
7.0042	530.496830793	1.0
7.0144	530.530439962	6.0
7.0246	530.563844462	2.0
7.0349	530.597370039	2.0
7.0451	530.63036696	2.0
7.0554	530.663483479	1.0
7.0656	530.696077793	1.0
7.0758	530.728473618	2.0
7.0861	530.760986864	0.0
7.0963	530.792987417	4.0
7.1066	530.825103957	2.0
7.1168	530.85671406	5.0
7.127	530.888131668	3.0
7.1373	530.919663152	2.0
7.1475	530.950697423	4.0
7.1578	530.981844179	2.0
7.168	531.01249979	2.0
7.1782	531.042968719	2.0
7.1885	531.073548085	3.0
7.1987	531.103645252	1.0
7.209	531.133851507	2.0
7.2192	531.163581448	8.0
7.2294	531.193130344	1.0
7.2397	531.222786342	3.0
7.2499	531.251974701	1.0
7.2602	531.281268856	3.0
7.2704	531.310101078	2.0
7.2806	531.338757722	4.0
7.2909	531.367518234	1.0
7.3011	531.395825228	1.0
7.3114	531.424234822	3.0
7.3216	531.452196433	2.0
7.3318	531.479987767	3.0
7.3421	531.507879833	4.0
7.3523	531.535332075	1.0
7.3626	531.56288382	1.0
7.3728	531.590001108	6.0
7.383	531.616953261	0.0
7.3933	531.644003104	3.0
7.4035	531.670626405	0.0
7.4138	531.697346203	2.0
7.424	531.723644663	3.0
7.4342	531.749782975	2.0
7.4445	531.776016027	2.0
7.4547	531.801835416	3.0
7.465	531.827748389	2.0
7.4752	531.853252747	2.0
7.4854	531.878601792	1.0
7.4957	531.904042716	1.0
7.5059	531.929082469	1.0
7.5162	531.95421298	2.0
7.5264	531.978947213	5.0
7.5366	532.003530824	5.0
7.5469	532.02820354	1.0
7.5571	532.052487198	6.0
7.5674	532.076858873	1.0
7.5776	532.100846237	1.0
7.5878	532.124687527	2.0
7.5981	532.148615231	1.0
7.6083	532.172165625	0.0
7.6186	532.195801378	4.0
7.6288	532.219064425	1.0
7.639	532.242185808	1.0
7.6493	532.265390997	3.0
7.6595	532.288230268	1.0
7.6698	532.311152321	3.0
7.68	532.333712922	3.0
7.6902	532.356136138	2.0
7.7005	532.378640627	3.0
7.7107	532.400790249	2.0
7.721	532.423020153	4.0
7.7312	532.444899519	5.0
7.7414	532.466645648	2.0
7.7517	532.488470596	2.0
7.7619	532.509951393	2.0
7.7722	532.531510048	0.0
7.7824	532.552728749	3.0
7.7926	532.573818237	3.0
7.8029	532.594984164	3.0
7.8131	532.615816331	4.0
7.8234	532.636724006	2.0
7.8336	532.657301992	1.0
7.8438	532.677754666	4.0
7.8541	532.698281472	0.0
7.8643	532.718484595	1.0
7.8746	532.738760946	1.0
