TL-DOS Lehrstuhlversuch
detector=R1407603
job_number=2015-11-02-009
irradiation_dose [mSv]=0.3

[BEGIN DATA]
time [sec] 	 temperature [K] 	 photoncount 
0.0	132.854323735	0.0
0.0102	134.451767061	0.0
0.0205	136.058586193	1.0
0.0307	137.643604972	1.0
0.041	139.237926634	0.0
0.0512	140.810617502	1.0
0.0614	142.377210252	0.0
0.0717	143.952997738	1.0
0.0819	145.50740589	3.0
0.0922	147.070937263	1.0
0.1024	148.613255586	0.0
0.1126	150.14959356	1.0
0.1229	151.694948698	1.0
0.1331	153.219337389	0.0
0.1434	154.75267311	0.0
0.1536	156.265205457	1.0
0.1638	157.77187295	1.0
0.1741	159.287383463	1.0
0.1843	160.782332444	3.0
0.1946	162.286055665	1.0
0.2048	163.769377276	0.0
0.215	165.2469473	0.0
0.2253	166.733189561	1.0
0.2355	168.199267385	0.0
0.2458	169.673949996	3.0
0.256	171.128625004	1.0
0.2662	172.577659501	1.0
0.2765	174.035198754	1.0
0.2867	175.472962994	2.0
0.297	176.919165841	0.0
0.3072	178.345747482	0.0
0.3174	179.766797544	0.0
0.3277	181.196188114	0.0
0.3379	182.606185575	0.0
0.3482	184.024458674	0.0
0.3584	185.4234895	1.0
0.3686	186.817095575	2.0
0.3789	188.218881083	0.0
0.3891	189.601648011	0.0
0.3994	190.992530753	0.0
0.4096	192.364542838	1.0
0.4198	193.731234938	0.0
0.4301	195.105948505	1.0
0.4403	196.462010789	0.0
0.4506	197.82603215	0.0
0.4608	199.171547293	0.0
0.471	200.511845193	0.0
0.4813	201.860009646	0.0
0.4915	203.189883018	0.0
0.5018	204.527561758	0.0
0.512	205.84709168	0.0
0.5222	207.161505117	1.0
0.5325	208.483633185	0.0
0.5427	209.787823417	0.0
0.553	211.099668277	0.0
0.5632	212.393714817	0.0
0.5734	213.682743685	0.0
0.5837	214.979338194	0.0
0.5939	216.258341291	0.0
0.6042	217.544851187	0.0
0.6144	218.813906492	0.0
0.6246	220.078041029	0.0
0.6349	221.349595096	0.0
0.6451	222.603897484	0.0
0.6554	223.865561696	0.0
0.6656	225.11010841	3.0
0.6758	226.349829386	0.0
0.6861	227.596826603	0.0
0.6963	228.826905315	0.0
0.7066	230.064203675	0.0
0.7168	231.284715117	0.0
0.727	232.500494019	1.0
0.7373	233.72340864	1.0
0.7475	234.929731494	0.0
0.7578	236.143134567	0.0
0.768	237.340074919	0.0
0.7782	238.532374127	0.0
0.7885	239.731671247	1.0
0.7987	240.914697027	2.0
0.809	242.104666289	0.0
0.8192	243.278490767	1.0
0.8294	244.447763733	0.0
0.8397	245.623899463	1.0
0.8499	246.784078093	1.0
0.8602	247.95106611	0.0
0.8704	249.102221138	1.0
0.8806	250.248912555	0.0
0.8909	251.402334199	0.0
0.9011	252.540106915	0.0
0.9114	253.684557511	0.0
0.9216	254.813480892	0.0
0.9318	255.938026866	1.0
0.9421	257.069173089	1.0
0.9523	258.184972603	0.0
0.9626	259.307321031	0.0
0.9728	260.414442114	0.0
0.983	261.517270328	1.0
0.9933	262.626571324	0.0
1.0035	263.720821993	0.0
1.0138	264.821495101	1.0
1.024	265.907234941	0.0
1.0342	266.988764818	1.0
1.0445	268.076642472	0.0
1.0547	269.149760459	0.0
1.065	270.229176851	1.0
1.0752	271.293948373	1.0
1.0854	272.354591237	1.0
1.0957	273.421459286	0.0
1.1059	274.473852714	1.0
1.1162	275.53242291	1.0
1.1264	276.576631064	1.0
1.1366	277.616790294	0.0
1.1469	278.663054487	0.0
1.1571	279.695123598	1.0
1.1674	280.733250189	0.0
1.1776	281.757292104	0.0
1.1878	282.777363291	1.0
1.1981	283.803421538	2.0
1.2083	284.815558846	1.0
1.2186	285.833636648	1.0
1.2288	286.837901785	0.0
1.239	287.838272878	0.0
1.2493	288.844515406	0.0
1.2595	289.837105842	1.0
1.2698	290.835522047	2.0
1.28	291.820392344	1.0
1.2902	292.8014438	0.0
1.3005	293.7882533	0.0
1.3107	294.761674364	4.0
1.321	295.740808686	0.0
1.3312	296.706658705	0.0
1.3414	297.668763634	0.0
1.3517	298.636515405	1.0
1.3619	299.591137304	0.0
1.3722	300.551362124	0.0
1.3824	301.498559194	0.0
1.3926	302.442083501	1.0
1.4029	303.391145595	0.0
1.4131	304.327331387	0.0
1.4234	305.269011894	2.0
1.4336	306.197916249	1.0
1.4438	307.123218771	0.0
1.4541	308.053952132	2.0
1.4643	308.972057865	2.0
1.4746	309.895552195	0.0
1.4848	310.806517113	2.0
1.495	311.713949758	1.0
1.5053	312.626708359	1.0
1.5155	313.527083202	1.0
1.5258	314.432742577	1.0
1.536	315.326114511	0.0
1.5462	316.216022391	2.0
1.5565	317.111153369	1.0
1.5667	317.99413975	2.0
1.577	318.882308605	0.0
1.5872	319.758427321	0.0
1.5974	320.631148882	6.0
1.6077	321.50899267	2.0
1.6179	322.374926403	2.0
1.6282	323.245942524	2.0
1.6384	324.105141224	1.0
1.6486	324.961008376	0.0
1.6589	325.821898832	0.0
1.6691	326.671109246	0.0
1.6794	327.525303895	0.0
1.6896	328.367909345	2.0
1.6998	329.207247589	3.0
1.7101	330.051512124	2.0
1.7203	330.884322188	2.0
1.7306	331.722020228	1.0
1.7408	332.548352886	1.0
1.751	333.371481435	3.0
1.7613	334.199441137	3.0
1.7715	335.016167581	1.0
1.7818	335.837687603	2.0
1.792	336.648061737	3.0
1.8022	337.45529364	4.0
1.8125	338.267263395	0.0
1.8227	339.068216835	2.0
1.833	339.873871276	2.0
1.8432	340.668595084	3.0
1.8534	341.460237346	3.0
1.8637	342.25652596	1.0
1.8739	343.04201101	3.0
1.8842	343.832106274	4.0
1.8944	344.611482002	4.0
1.9046	345.387835697	2.0
1.9149	346.168746011	2.0
1.9251	346.939061405	2.0
1.9354	347.713897978	1.0
1.9456	348.478222036	2.0
1.9558	349.239582423	4.0
1.9661	350.00541143	2.0
1.9763	350.760850131	2.0
1.9866	351.520722696	6.0
1.9968	352.270285769	4.0
2.007	353.016942407	1.0
2.0173	353.767981364	3.0
2.0275	354.508830678	6.0
2.0378	355.254028227	7.0
2.048	355.989115386	6.0
2.0582	356.72135224	3.0
2.0685	357.45788678	5.0
2.0787	358.184428464	11.0
2.089	358.915234408	7.0
2.0992	359.636125218	5.0
2.1094	360.354220769	2.0
2.1197	361.076531009	9.0
2.1299	361.789041378	8.0
2.1402	362.505733654	5.0
2.1504	363.212702282	11.0
2.1606	363.916929635	5.0
2.1709	364.62529028	10.0
2.1811	365.324040314	10.0
2.1914	366.026891492	10.0
2.2016	366.72020681	6.0
2.2118	367.410833794	12.0
2.2221	368.105514244	11.0
2.2323	368.79076969	12.0
2.2426	369.480047076	10.0
2.2528	370.159972763	9.0
2.263	370.837262033	9.0
2.2733	371.518526489	10.0
2.2835	372.190547959	12.0
2.2938	372.866513697	9.0
2.304	373.533308339	13.0
2.3142	374.197517481	16.0
2.3245	374.865625037	16.0
2.3347	375.524668113	22.0
2.345	376.187579282	10.0
2.3552	376.841496473	16.0
2.3654	377.492878096	14.0
2.3757	378.148082845	19.0
2.3859	378.794398172	19.0
2.3962	379.444506889	15.0
2.4064	380.085795324	23.0
2.4166	380.724597159	27.0
2.4269	381.367148286	20.0
2.4371	382.000981668	26.0
2.4474	382.63853518	29.0
2.4576	383.267438751	27.0
2.4678	383.893903745	27.0
2.4781	384.524045623	31.0
2.4883	385.145638117	37.0
2.4986	385.770878896	22.0
2.5088	386.387636786	28.0
2.519	387.002003194	27.0
2.5293	387.619975475	34.0
2.5395	388.229563482	37.0
2.5498	388.842729318	24.0
2.56	389.44757609	32.0
2.5702	390.050077565	34.0
2.5805	390.656115276	44.0
2.5907	391.253930633	46.0
2.601	391.855254722	42.0
2.6112	392.448420409	41.0
2.6214	393.039286092	40.0
2.6317	393.633619718	30.0
2.6419	394.219889784	40.0
2.6522	394.809600819	34.0
2.6624	395.391311012	47.0
2.6726	395.970765619	39.0
2.6829	396.553621195	49.0
2.6931	397.128568938	34.0
2.7034	397.706891197	37.0
2.7136	398.277367129	41.0
2.7238	398.845631037	52.0
2.7341	399.417230232	45.0
2.7443	399.981074314	54.0
2.7546	400.548227742	43.0
2.7648	401.107686374	57.0
2.775	401.664975702	37.0
2.7853	402.225535905	47.0
2.7955	402.778490765	54.0
2.8058	403.33469106	56.0
2.816	403.883345164	41.0
2.8262	404.429871859	47.0
2.8365	404.97960626	49.0
2.8467	405.521882196	54.0
2.857	406.067340889	49.0
2.8672	406.605399128	58.0
2.8774	407.141371043	55.0
2.8877	407.680488714	49.0
2.8979	408.212291963	52.0
2.9082	408.747216501	50.0
2.9184	409.274883506	53.0
2.9286	409.80050448	44.0
2.9389	410.329210457	43.0
2.9491	410.850743272	39.0
2.9594	411.375337096	48.0
2.9696	411.892813548	34.0
2.9798	412.408283482	37.0
2.9901	412.926778842	38.0
3.0003	413.438239569	34.0
3.0106	413.952702192	28.0
3.0208	414.460184895	34.0
3.031	414.965699832	34.0
3.0413	415.474181765	38.0
3.0515	415.975764923	36.0
3.0618	416.480292001	28.0
3.072	416.97797396	26.0
3.0822	417.473726155	29.0
3.0925	417.972388047	25.0
3.1027	418.464284395	32.0
3.113	418.959067809	28.0
3.1232	419.4471383	18.0
3.1334	419.933316295	32.0
3.1437	420.422347794	31.0
3.1539	420.904744409	34.0
3.1642	421.389972333	29.0
3.1744	421.868616978	36.0
3.1846	422.345405676	21.0
3.1949	422.824992768	25.0
3.2051	423.298073113	32.0
3.2154	423.773930088	35.0
3.2256	424.243330922	30.0
3.2358	424.710911652	34.0
3.2461	425.181236734	24.0
3.2563	425.645180728	20.0
3.2666	426.11184773	25.0
3.2768	426.572183275	28.0
3.287	427.030733866	24.0
3.2973	427.491975809	29.0
3.3075	427.946959899	37.0
3.3178	428.404614408	20.0
3.328	428.856059737	29.0
3.3382	429.305754583	30.0
3.3485	429.758088805	24.0
3.3587	430.204286029	24.0
3.369	430.653102099	23.0
3.3792	431.095828903	25.0
3.3894	431.536839032	37.0
3.3997	431.980437562	35.0
3.4099	432.418017615	28.0
3.4202	432.858165939	27.0
3.4304	433.292342595	32.0
3.4406	433.724835729	29.0
3.4509	434.159867276	37.0
3.4611	434.588996578	41.0
3.4714	435.02064455	39.0
3.4816	435.446436183	43.0
3.4918	435.870576806	38.0
3.5021	436.297206819	37.0
3.5123	436.718048574	38.0
3.5226	437.141360358	43.0
3.5328	437.558928903	35.0
3.543	437.974878323	35.0
3.5533	438.393269057	48.0
3.5635	438.805983318	46.0
3.5738	439.221119906	45.0
3.584	439.630624171	42.0
3.5942	440.03854058	48.0
3.6045	440.448851156	56.0
3.6147	440.853594886	52.0
3.625	441.26071416	60.0
3.6352	441.662309886	51.0
3.6454	442.062348423	30.0
3.6557	442.464734888	33.0
3.6659	442.861662016	51.0
3.6762	443.260918812	41.0
3.6864	443.654758733	50.0
3.6966	444.047071537	44.0
3.7069	444.441686926	49.0
3.7171	444.830948411	46.0
3.7274	445.222494572	42.0
3.7376	445.608728471	68.0
3.7478	445.993464746	51.0
3.7581	446.380459137	47.0
3.7683	446.762203022	47.0
3.7786	447.14618746	43.0
3.7888	447.524962228	36.0
3.799	447.902268295	36.0
3.8093	448.281788869	41.0
3.8195	448.656160336	40.0
3.8298	449.032729086	54.0
3.84	449.404188778	45.0
3.8502	449.774208133	43.0
3.8605	450.146399227	52.0
3.8707	450.513540657	30.0
3.881	450.882836934	47.0
3.8912	451.247122822	48.0
3.9014	451.60999619	54.0
3.9117	451.974999354	46.0
3.9219	452.335050376	40.0
3.9322	452.69721463	45.0
3.9424	453.054465258	40.0
3.9526	453.410330644	43.0
3.9629	453.768284696	57.0
3.9731	454.121382244	50.0
3.9834	454.476552212	51.0
3.9936	454.826903447	54.0
4.0038	455.175896194	42.0
4.0141	455.52693727	49.0
4.0243	455.873215631	33.0
4.0346	456.22152639	37.0
4.0448	456.565111478	37.0
4.055	456.907364313	41.0
4.0653	457.251625918	40.0
4.0755	457.591216789	50.0
4.0858	457.932800807	51.0
4.096	458.269750418	44.0
4.1062	458.605393506	32.0
4.1165	458.943006569	39.0
4.1267	459.276039102	43.0
4.137	459.611026288	37.0
4.1472	459.94146857	32.0
4.1574	460.270629561	40.0
4.1677	460.601722482	26.0
4.1779	460.928323334	40.0
4.1882	461.25684109	52.0
4.1984	461.580901716	35.0
4.2086	461.903705795	34.0
4.2189	462.228404494	34.0
4.2291	462.548697877	37.0
4.2394	462.870871144	31.0
4.2496	463.188673359	36.0
4.2598	463.505243293	42.0
4.2701	463.823671258	33.0
4.2803	464.137778985	49.0
4.2906	464.453730291	40.0
4.3008	464.76539496	40.0
4.311	465.075851147	30.0
4.3213	465.388129482	41.0
4.3315	465.696171012	43.0
4.3418	466.006020518	51.0
4.352	466.311666173	43.0
4.3622	466.616126684	27.0
4.3725	466.922374153	33.0
4.3827	467.224466641	33.0
4.393	467.528332187	31.0
4.4032	467.828075069	35.0
4.4134	468.126655696	30.0
4.4237	468.42698877	46.0
4.4339	468.723247106	43.0
4.4442	469.021244258	41.0
4.4544	469.315198365	47.0
4.4646	469.608012663	58.0
4.4749	469.902545563	38.0
4.4851	470.193082419	39.0
4.4954	470.48532451	38.0
4.5056	470.773601637	48.0
4.5158	471.060760967	45.0
4.5261	471.34960571	45.0
4.5363	471.634531581	35.0
4.5466	471.921129756	45.0
4.5568	472.203839539	40.0
4.567	472.485453114	39.0
4.5773	472.768719551	36.0
4.5875	473.0481428	34.0
4.5978	473.329206056	40.0
4.608	473.606456015	58.0
4.6182	473.882630936	27.0
4.6285	474.160426799	35.0
4.6387	474.434453695	33.0
4.649	474.710088925	25.0
4.6592	474.981984503	35.0
4.6694	475.252825804	55.0
4.6797	475.525256743	35.0
4.6899	475.793991502	33.0
4.7002	476.064303536	39.0
4.7104	476.330948138	30.0
4.7206	476.596558825	42.0
4.7309	476.863728449	37.0
4.7411	477.127273277	52.0
4.7514	477.392364917	40.0
4.7616	477.653859954	26.0
4.7718	477.914341042	34.0
4.7821	478.176350961	41.0
4.7923	478.434806088	34.0
4.8026	478.694778154	28.0
4.8128	478.951223075	27.0
4.823	479.206673631	44.0
4.8333	479.463623491	45.0
4.8435	479.71708721	37.0
4.8538	479.972038573	36.0
4.864	480.223530911	31.0
4.8742	480.474048085	34.0
4.8845	480.726035608	34.0
4.8947	480.974604317	45.0
4.905	481.22463194	37.0
4.9152	481.471267339	22.0
4.9254	481.716946408	30.0
4.9357	481.96406743	39.0
4.9459	482.207835663	34.0
4.9562	482.453034635	43.0
4.9664	482.694906895	39.0
4.9766	482.935841294	28.0
4.9869	483.178189799	42.0
4.9971	483.417250266	35.0
5.0074	483.65771384	37.0
5.0176	483.894914949	41.0
5.0278	484.13119631	27.0
5.0381	484.368864467	26.0
5.0483	484.603308086	28.0
5.0586	484.839127714	41.0
5.0688	485.071747884	26.0
5.079	485.303466068	28.0
5.0893	485.536544266	38.0
5.0995	485.766460199	30.0
5.1098	485.997725568	34.0
5.12	486.225853269	34.0
5.1302	486.453096402	30.0
5.1405	486.681673284	25.0
5.1507	486.907148973	44.0
5.161	487.133948037	30.0
5.1712	487.357670027	32.0
5.1814	487.580524535	25.0
5.1917	487.804687033	25.0
5.2019	488.025808229	21.0
5.2122	488.248227243	30.0
5.2224	488.467628609	37.0
5.2326	488.686179246	27.0
5.2429	488.906012612	23.0
5.2531	489.122863412	28.0
5.2634	489.340986965	27.0
5.2736	489.556151149	21.0
5.2838	489.770481033	29.0
5.2941	489.986068875	26.0
5.3043	490.19873175	22.0
5.3146	490.412642798	25.0
5.3248	490.623651631	30.0
5.335	490.833842275	30.0
5.3453	491.045266583	35.0
5.3555	491.253822413	27.0
5.3658	491.463602311	40.0
5.376	491.670536042	20.0
5.3862	491.876667386	36.0
5.3965	492.084008567	34.0
5.4067	492.288536669	32.0
5.417	492.494265199	37.0
5.4272	492.697202529	33.0
5.4374	492.899352967	33.0
5.4477	493.102689879	28.0
5.4579	493.303268038	23.0
5.4682	493.505023442	38.0
5.4784	493.70404155	20.0
5.4886	493.902287964	28.0
5.4989	494.101697938	24.0
5.5091	494.298402437	37.0
5.5194	494.496261446	24.0
5.5296	494.691436023	32.0
5.5398	494.88585381	21.0
5.5501	495.081412684	27.0
5.5603	495.274318334	25.0
5.5706	495.468356196	34.0
5.5808	495.65976147	24.0
5.591	495.850424569	40.0
5.6013	496.042206719	22.0
5.6115	496.231386884	19.0
5.6218	496.421677396	24.0
5.632	496.609386162	44.0
5.6422	496.796367085	39.0
5.6525	496.984445448	29.0
5.6627	497.169972077	23.0
5.673	497.356587609	32.0
5.6832	497.540671255	36.0
5.6934	497.724041115	30.0
5.7037	497.90848722	29.0
5.7139	498.090430871	30.0
5.7242	498.273442397	32.0
5.7344	498.453970932	31.0
5.7446	498.633799467	32.0
5.7549	498.814683462	34.0
5.7651	498.993113333	33.0
5.7754	499.172590454	25.0
5.7856	499.349632537	35.0
5.7958	499.525988139	43.0
5.8061	499.703378818	29.0
5.8163	499.878362767	21.0
5.8266	500.054373741	39.0
5.8368	500.227996705	27.0
5.847	500.400946445	27.0
5.8573	500.574911271	39.0
5.8675	500.746515847	28.0
5.8778	500.919127615	33.0
5.888	501.089397491	28.0
5.8982	501.259007144	26.0
5.9085	501.42961228	35.0
5.9187	501.597902748	32.0
5.929	501.767180956	27.0
5.9392	501.9341625	35.0
5.9494	502.100496572	21.0
5.9597	502.267806901	24.0
5.9699	502.432847265	24.0
5.9802	502.598856293	28.0
5.9904	502.762613011	30.0
6.0006	502.925734761	24.0
6.0109	503.089813914	28.0
6.0211	503.251666941	28.0
6.0314	503.414469925	29.0
6.0416	503.575064096	34.0
6.0518	503.735035562	26.0
6.0621	503.895945942	23.0
6.0723	504.054673187	26.0
6.0826	504.214332043	23.0
6.0928	504.371824744	30.0
6.103	504.528706766	27.0
6.1133	504.686509569	21.0
6.1235	504.842171399	21.0
6.1338	504.998746848	27.0
6.144	505.153197976	21.0
6.1542	505.307050218	21.0
6.1645	505.461805459	19.0
6.1747	505.614461075	25.0
6.185	505.768012665	23.0
6.1952	505.919480961	22.0
6.2054	506.070361937	13.0
6.2157	506.222128472	31.0
6.2259	506.37183593	20.0
6.2362	506.52242206	30.0
6.2464	506.670965128	29.0
6.2566	506.81893222	22.0
6.2669	506.967767769	19.0
6.2771	507.114584006	21.0
6.2874	507.262261946	18.0
6.2976	507.407936281	12.0
6.3078	507.553045763	19.0
6.3181	507.699006929	16.0
6.3283	507.842987783	20.0
6.3386	507.987813697	15.0
6.3488	508.130674701	23.0
6.359	508.27298176	21.0
6.3693	508.416124056	16.0
6.3795	508.557324283	10.0
6.3898	508.699353251	12.0
6.4	508.839455256	15.0
6.4102	508.979014014	18.0
6.4205	509.119391879	16.0
6.4307	509.257865182	15.0
6.441	509.397151219	14.0
6.4512	509.534547508	14.0
6.4614	509.671411042	14.0
6.4717	509.809077864	16.0
6.4819	509.944876905	16.0
6.4922	510.081472985	11.0
6.5024	510.216215813	12.0
6.5126	510.350436174	22.0
6.5229	510.485444309	19.0
6.5331	510.618620735	5.0
6.5434	510.752578808	14.0
6.5536	510.884719418	15.0
6.5638	511.016347653	11.0
6.5741	511.148748447	11.0
6.5843	511.279352908	7.0
6.5946	511.410723919	7.0
6.6048	511.540312568	5.0
6.615	511.669398736	13.0
6.6253	511.799242545	13.0
6.6355	511.92732471	6.0
6.6458	512.056158623	10.0
6.656	512.183244595	13.0
6.6662	512.309837791	12.0
6.6765	512.437173994	6.0
6.6867	512.562782577	9.0
6.697	512.689128389	12.0
6.7072	512.813760017	9.0
6.7174	512.937908385	9.0
6.7277	513.062785412	5.0
6.7379	513.185968183	5.0
6.7482	513.309873945	7.0
6.7584	513.432098628	4.0
6.7686	513.553849385	3.0
6.7789	513.676314728	4.0
6.7891	513.797118535	8.0
6.7994	513.918631371	8.0
6.8096	514.038495594	5.0
6.8198	514.157895043	3.0
6.8301	514.277995278	8.0
6.8403	514.396466065	5.0
6.8506	514.515632188	11.0
6.8608	514.633181537	3.0
6.871	514.750275087	4.0
6.8813	514.86805589	8.0
6.8915	514.984238714	4.0
6.9018	515.101103445	6.0
6.912	515.216382625	2.0
6.9222	515.33121481	6.0
6.9325	515.446720974	5.0
6.9427	515.560660021	6.0
6.953	515.675267805	8.0
6.9632	515.78832066	6.0
6.9734	515.900935152	3.0
6.9837	516.014210607	4.0
6.9939	516.125949209	4.0
7.0042	516.238343634	3.0
7.0144	516.349213159	2.0
7.0246	516.459652787	4.0
7.0349	516.570740613	4.0
7.0451	516.680321267	2.0
7.0554	516.790545078	3.0
7.0656	516.899273438	2.0
7.0758	517.007580204	1.0
7.0861	517.11652265	7.0
7.0963	517.223987031	4.0
7.1066	517.332082148	6.0
7.1168	517.438710695	4.0
7.127	517.54492579	5.0
7.1373	517.651764288	3.0
7.1475	517.757153266	1.0
7.1578	517.863160799	2.0
7.168	517.967730086	2.0
7.1782	518.071893905	1.0
7.1885	518.176669088	3.0
7.1987	518.280022745	2.0
7.209	518.38398301	0.0
7.2192	518.486532806	3.0
7.2294	518.588684964	2.0
7.2397	518.69143668	1.0
7.2499	518.792794322	4.0
7.2602	518.894746858	1.0
7.2704	518.995316164	2.0
7.2806	519.095495512	4.0
7.2909	519.196262838	2.0
7.3011	519.295663014	3.0
7.3114	519.395646595	1.0
7.3216	519.494273659	1.0
7.3318	519.592518296	1.0
7.3421	519.691339556	1.0
7.3523	519.788820069	2.0
7.3626	519.88687272	1.0
7.3728	519.983595052	1.0
7.383	520.079942343	0.0
7.3933	520.17685512	0.0
7.4035	520.272453044	0.0
7.4138	520.368612056	3.0
7.424	520.463466441	3.0
7.4342	520.557953027	0.0
7.4445	520.65299418	0.0
7.4547	520.746745871	2.0
7.465	520.841047815	1.0
7.4752	520.934070328	4.0
7.4854	521.026732145	0.0
7.4957	521.119937818	1.0
7.5059	521.211878933	1.0
7.5162	521.304359673	0.0
7.5264	521.395585691	0.0
7.5366	521.48645798	0.0
7.5469	521.577863621	1.0
7.5571	521.668029126	4.0
7.5674	521.758723835	3.0
7.5776	521.848188053	2.0
7.5878	521.937305374	1.0
7.5981	522.026945746	2.0
7.6083	522.115369932	1.0
7.6186	522.204313103	1.0
7.6288	522.292049546	1.0
7.639	522.379445791	0.0
7.6493	522.467354986	0.0
7.6595	522.554071483	1.0
7.6698	522.641296941	0.0
7.68	522.727338977	1.0
7.6902	522.813047384	0.0
7.7005	522.899258836	0.0
7.7107	522.984300623	1.0
7.721	523.069841542	2.0
7.7312	523.154221894	0.0
7.7414	523.23827506	0.0
7.7517	523.322821556	2.0
7.7619	523.406220976	2.0
7.7722	523.490109888	2.0
7.7824	523.572860647	0.0
7.7926	523.655290539	2.0
7.8029	523.738204233	1.0
7.8131	523.819993004	1.0
7.8234	523.902261815	0.0
7.8336	523.983414452	0.0
7.8438	524.064252419	1.0
7.8541	524.145564845	0.0
7.8643	524.225774073	2.0
7.8746	524.30645407	1.0
7.8848	524.386039449	0.0
7.895	524.465316236	0.0
7.9053	524.545058318	0.0
7.9155	524.623718508	4.0
7.9258	524.702840374	0.0
7.936	524.780888763	1.0
7.9462	524.858634519	1.0
7.9565	524.936836585	1.0
7.9667	525.013977652	0.0
7.977	525.09157148	0.0
7.9872	525.168112562	1.0
7.9974	525.244356855	2.0
8.0077	525.321048646	0.0
8.0179	525.396699928	1.0
