TL-DOS Lehrstuhlversuch
detector=R1406802
job_number=2015-10-16-001
irradiation_dose [mSv]=1.0

[BEGIN DATA]
time [sec] 	 temperature [K] 	 photoncount 
0.0	119.597986947	0.0
0.0102	121.551794861	0.0
0.0205	123.515713715	0.0
0.0307	125.451650152	4.0
0.041	127.397605044	2.0
0.0512	129.315833473	1.0
0.0614	131.225311527	3.0
0.0717	133.144671114	0.0
0.0819	135.036683176	0.0
0.0922	136.938486384	0.0
0.1024	138.813192214	3.0
0.1126	140.679346207	1.0
0.1229	142.555157531	1.0
0.1331	144.404241816	1.0
0.1434	146.262895096	1.0
0.1536	148.09506581	3.0
0.1638	149.918878718	0.0
0.1741	151.752129843	1.0
0.1843	153.559260338	1.0
0.1946	155.375742717	2.0
0.2048	157.166343392	3.0
0.215	158.948775891	2.0
0.2253	160.740432463	1.0
0.2355	162.506561055	1.0
0.2458	164.281829348	1.0
0.256	166.031803164	0.0
0.2662	167.773794132	0.0
0.2765	169.524799889	0.0
0.2867	171.250856868	0.0
0.297	172.985846178	0.0
0.3072	174.696114917	0.0
0.3174	176.39858193	0.0
0.3277	178.109859196	0.0
0.3379	179.796753746	0.0
0.3482	181.492377961	0.0
0.3584	183.163842489	0.0
0.3686	184.827682304	0.0
0.3789	186.500132477	0.0
0.3891	188.148753152	0.0
0.3994	189.805905426	0.0
0.4096	191.43944617	0.0
0.4198	193.065535199	1.0
0.4301	194.700039225	1.0
0.4403	196.311254419	0.0
0.4506	197.930807639	0.0
0.4608	199.527285051	0.0
0.471	201.116479818	0.0
0.4813	202.713898656	0.0
0.4915	204.288557061	0.0
0.5018	205.871364311	0.0
0.512	207.431619318	0.0
0.5222	208.984756917	0.0
0.5325	210.54593199	0.0
0.5427	212.084863041	0.0
0.553	213.631758048	2.0
0.5632	215.1566125	0.0
0.5734	216.674511029	0.0
0.5837	218.200264671	0.0
0.5939	219.704278985	0.0
0.6042	221.21607656	0.0
0.6144	222.706333658	0.0
0.6246	224.189792655	0.0
0.6349	225.680928541	0.0
0.6451	227.150818342	0.0
0.6554	228.62831481	0.0
0.6656	230.084759531	1.0
0.6758	231.534560394	0.0
0.6861	232.991863965	0.0
0.6963	234.428403501	0.0
0.7066	235.872377119	0.0
0.7168	237.295776631	0.0
0.727	238.712683027	0.0
0.7373	240.136921902	0.0
0.7475	241.540867858	0.0
0.7578	242.952079222	0.0
0.768	244.343183287	0.0
0.7782	245.727941557	0.0
0.7885	247.119865941	1.0
0.7987	248.49195783	0.0
0.809	249.871150283	0.0
0.8192	251.23069165	1.0
0.8294	252.584031202	0.0
0.8397	253.944374275	0.0
0.8499	255.285334833	0.0
0.8602	256.633234851	0.0
0.8704	257.961929644	0.0
0.8806	259.284563336	0.0
0.8909	260.614041647	0.0
0.9011	261.92457721	0.0
0.9114	263.241894785	2.0
0.9216	264.540442882	0.0
0.9318	265.833067397	0.0
0.9421	267.132381234	0.0
0.9523	268.413182115	0.0
0.9626	269.70061113	0.0
0.9728	270.969696528	0.0
0.983	272.232992744	0.0
0.9933	273.502826507	0.0
1.0035	274.754567354	0.0
1.0138	276.01278595	0.0
1.024	277.253077126	0.0
1.0342	278.487710471	0.0
1.0445	279.728733033	0.0
1.0547	280.952073188	0.0
1.065	282.181744119	0.0
1.0752	283.393894384	0.0
1.0854	284.600515188	1.0
1.0957	285.813380245	1.0
1.1059	287.008964091	1.0
1.1162	288.210735073	1.0
1.1264	289.395382915	0.0
1.1366	290.574626754	0.0
1.1469	291.75997317	0.0
1.1571	292.928430467	0.0
1.1674	294.102934521	0.0
1.1776	295.260703941	0.0
1.1878	296.41319197	1.0
1.1981	297.571644114	0.0
1.2083	298.713590336	0.0
1.2186	299.861446121	0.0
1.2288	300.992946962	0.0
1.239	302.119286242	1.0
1.2493	303.251454317	0.0
1.2595	304.367490973	1.0
1.2698	305.489303109	0.0
1.28	306.595131379	0.0
1.2902	307.695915197	1.0
1.3005	308.802395562	0.0
1.3107	309.893110511	1.0
1.321	310.989469902	0.0
1.3312	312.070208084	1.0
1.3414	313.146016267	2.0
1.3517	314.227391749	3.0
1.3619	315.293359516	2.0
1.3722	316.364843658	0.0
1.3824	317.42106102	2.0
1.3926	318.472460239	1.0
1.4029	319.529300441	1.0
1.4131	320.571082514	2.0
1.4234	321.6182558	1.0
1.4336	322.650508693	0.0
1.4438	323.678052763	1.0
1.4541	324.710914365	4.0
1.4643	325.729059491	1.0
1.4746	326.752473509	3.0
1.4848	327.761305663	3.0
1.495	328.765535832	2.0
1.5053	329.774962883	3.0
1.5155	330.77000736	1.0
1.5258	331.770201184	1.0
1.536	332.75614399	2.0
1.5462	333.737589225	1.0
1.5565	334.724113432	3.0
1.5667	335.696581389	6.0
1.577	336.67408186	2.0
1.5872	337.637654654	4.0
1.5974	338.596831922	5.0
1.6077	339.560972925	6.0
1.6179	340.511376601	2.0
1.6282	341.466698607	6.0
1.6384	342.408408942	6.0
1.6486	343.34582348	5.0
1.6589	344.288089131	5.0
1.6691	345.21692914	8.0
1.6794	346.150575888	8.0
1.6896	347.070919799	7.0
1.6998	347.987065381	4.0
1.7101	348.907952009	6.0
1.7203	349.815717609	10.0
1.7306	350.728180888	9.0
1.7408	351.627643157	12.0
1.751	352.523002353	16.0
1.7613	353.422995026	11.0
1.7715	354.310164372	10.0
1.7818	355.201924813	8.0
1.792	356.080979223	20.0
1.8022	356.956023655	8.0
1.8125	357.835596434	15.0
1.8227	358.702636835	20.0
1.833	359.574164163	18.0
1.8432	360.433273747	17.0
1.8534	361.288464335	23.0
1.8637	362.148080526	32.0
1.8739	362.995448687	23.0
1.8842	363.847201971	32.0
1.8944	364.686819256	31.0
1.9046	365.522606463	24.0
1.9149	366.362718861	27.0
1.9251	367.190861123	48.0
1.9354	368.023289015	40.0
1.9456	368.843856261	47.0
1.9558	369.66068033	40.0
1.9661	370.481731456	49.0
1.9763	371.291084035	40.0
1.9866	372.104625008	54.0
1.9968	372.906574441	49.0
2.007	373.704865624	58.0
2.0173	374.507287958	54.0
2.0275	375.298277174	66.0
2.0378	376.093359752	63.0
2.048	376.87711379	71.0
2.0582	377.65729258	75.0
2.0685	378.44150879	78.0
2.0787	379.214551286	82.0
2.089	379.991594271	87.0
2.0992	380.757565749	92.0
2.1094	381.520043099	84.0
2.1197	382.286466262	98.0
2.1299	383.041969232	94.0
2.1402	383.801381923	100.0
2.1504	384.549974309	134.0
2.1606	385.295151844	104.0
2.1709	386.044185666	136.0
2.1811	386.782547063	131.0
2.1914	387.524729474	145.0
2.2016	388.25633708	135.0
2.2118	388.984607316	140.0
2.2221	389.716646343	127.0
2.2323	390.438255091	176.0
2.2426	391.163598159	165.0
2.2528	391.878606354	151.0
2.263	392.590352898	168.0
2.2733	393.305782725	171.0
2.2835	394.011018925	190.0
2.2938	394.719904716	175.0
2.304	395.418690122	206.0
2.3142	396.11428788	184.0
2.3245	396.813485352	194.0
2.3347	397.50272048	220.0
2.345	398.195522393	203.0
2.3552	398.878453088	241.0
2.3654	399.55826846	216.0
2.3757	400.241601872	241.0
2.3859	400.915198974	235.0
2.3962	401.592281936	226.0
2.4064	402.259717647	221.0
2.4166	402.924108719	234.0
2.4269	403.59193801	221.0
2.4371	404.250251898	251.0
2.4474	404.911972555	234.0
2.4576	405.564264847	213.0
2.4678	406.21358158	239.0
2.4781	406.866258521	196.0
2.4883	407.509635955	239.0
2.4986	408.156342862	231.0
2.5088	408.793835323	182.0
2.519	409.428419738	189.0
2.5293	410.066288122	209.0
2.5395	410.695067994	200.0
2.5498	411.327101797	182.0
2.56	411.95013022	179.0
2.5702	412.570316578	199.0
2.5805	413.193712394	173.0
2.5907	413.808225908	180.0
2.601	414.425919524	171.0
2.6112	415.034812084	153.0
2.6214	415.640927061	163.0
2.6317	416.250178678	115.0
2.6419	416.850749522	120.0
2.6522	417.454428315	110.0
2.6624	418.049505739	116.0
2.6726	418.6418686	118.0
2.6829	419.237296935	131.0
2.6931	419.824241454	118.0
2.7034	420.414223406	129.0
2.7136	420.995799145	123.0
2.7238	421.574721912	112.0
2.7341	422.156640599	97.0
2.7443	422.730267961	102.0
2.7546	423.306863839	127.0
2.7648	423.875244232	114.0
2.775	424.441031846	106.0
2.7853	425.009747407	113.0
2.7955	425.570359763	100.0
2.8058	426.133873283	88.0
2.816	426.689357719	120.0
2.8262	427.242308203	100.0
2.8365	427.798120202	104.0
2.8467	428.346012849	118.0
2.857	428.896740837	122.0
2.8672	429.439621911	103.0
2.8774	429.980026527	115.0
2.8877	430.523227732	140.0
2.8979	431.058689267	139.0
2.9082	431.596921812	124.0
2.9184	432.127485482	144.0
2.9286	432.655628882	131.0
2.9389	433.186505419	138.0
2.9491	433.709817892	158.0
2.9594	434.235838503	156.0
2.9696	434.754364237	136.0
2.9798	435.270524615	164.0
2.9901	435.789356119	140.0
3.0003	436.300795178	143.0
3.0106	436.814880931	141.0
3.0208	437.321641858	159.0
3.031	437.826091096	174.0
3.0413	438.333150855	161.0
3.0515	438.832985897	149.0
3.0618	439.335407581	164.0
3.072	439.830670633	166.0
3.0822	440.323674445	176.0
3.0925	440.819229547	186.0
3.1027	441.307723854	170.0
3.113	441.798746115	201.0
3.1232	442.282772165	208.0
3.1334	442.764590236	181.0
3.1437	443.248901711	186.0
3.1539	443.726312593	206.0
3.1642	444.206194072	207.0
3.1744	444.679238077	193.0
3.1846	445.150124199	211.0
3.1949	445.623447153	207.0
3.2051	446.09002608	198.0
3.2154	446.55901955	204.0
3.2256	447.021330681	214.0
3.2358	447.481532889	213.0
3.2461	447.944116639	200.0
3.2563	448.400109378	199.0
3.2666	448.858461876	209.0
3.2768	449.31028365	221.0
3.287	449.760044351	200.0
3.2973	450.21213256	198.0
3.3075	450.6577793	198.0
3.3178	451.105732259	240.0
3.328	451.547302669	163.0
3.3382	451.986858769	202.0
3.3485	452.428689569	180.0
3.3587	452.86422505	194.0
3.369	453.302014424	212.0
3.3792	453.733566063	201.0
3.3894	454.163149095	194.0
3.3997	454.594955215	205.0
3.4099	455.020608852	181.0
3.4202	455.448465242	191.0
3.4304	455.870225425	170.0
3.4406	456.290061667	180.0
3.4509	456.712070558	185.0
3.4611	457.128066558	184.0
3.4714	457.546215334	184.0
3.4816	457.958406219	169.0
3.4918	458.368716815	171.0
3.5021	458.781150765	173.0
3.5123	459.187708251	167.0
3.5226	459.596369668	177.0
3.5328	459.999208373	163.0
3.543	460.40020945	186.0
3.5533	460.803285705	159.0
3.5635	461.200618826	141.0
3.5738	461.600008142	163.0
3.584	461.993706858	182.0
3.5942	462.38560964	208.0
3.6045	462.779540515	150.0
3.6147	463.167858563	163.0
3.625	463.558186153	152.0
3.6352	463.942952256	187.0
3.6454	464.325963174	180.0
3.6557	464.710956169	171.0
3.6659	465.090463686	163.0
3.6762	465.471935151	134.0
3.6864	465.847971313	158.0
3.6966	466.222292113	173.0
3.7069	466.59855002	159.0
3.7171	466.969446908	186.0
3.7274	467.342263184	153.0
3.7376	467.709767478	178.0
3.7478	468.07559533	166.0
3.7581	468.443316338	169.0
3.7683	468.805797963	161.0
3.7786	469.170155428	166.0
3.7888	469.529321434	141.0
3.799	469.886849034	167.0
3.8093	470.246226836	149.0
3.8195	470.600484132	124.0
3.8298	470.956574707	175.0
3.84	471.307591611	165.0
3.8502	471.657007284	172.0
3.8605	472.008231179	152.0
3.8707	472.354450747	173.0
3.881	472.702461998	176.0
3.8912	473.045514696	152.0
3.9014	473.387002492	170.0
3.9117	473.730257485	168.0
3.9219	474.068621692	147.0
3.9322	474.408736932	148.0
3.9424	474.744006123	163.0
3.9526	475.077745917	148.0
3.9629	475.413212813	160.0
3.9731	475.74389989	163.0
3.9834	476.07629827	166.0
3.9936	476.403960553	140.0
4.0038	476.73012814	154.0
4.0141	477.057983642	150.0
4.0243	477.381167775	149.0
4.0346	477.706024384	157.0
4.0448	478.026252352	162.0
4.055	478.345019537	160.0
4.0653	478.665436341	164.0
4.0755	478.981287763	153.0
4.0858	479.298773715	166.0
4.096	479.611736045	161.0
4.1062	479.923270736	150.0
4.1165	480.236417617	162.0
4.1267	480.545102701	165.0
4.137	480.855385228	141.0
4.1472	481.161246769	165.0
4.1574	481.465713064	119.0
4.1677	481.771754969	128.0
4.1779	482.073436311	146.0
4.1882	482.376678852	135.0
4.1984	482.675600715	139.0
4.2086	482.973158987	134.0
4.2189	483.272257121	158.0
4.2291	483.567093629	143.0
4.2394	483.863455913	144.0
4.2496	484.155595551	143.0
4.2598	484.446402538	127.0
4.2701	484.738714448	131.0
4.2803	485.026861423	161.0
4.2906	485.316499556	146.0
4.3008	485.602010851	114.0
4.311	485.886219731	143.0
4.3213	486.171899389	127.0
4.3315	486.453508611	142.0
4.3418	486.736575157	126.0
4.352	487.0156085	121.0
4.3622	487.293368977	123.0
4.3725	487.572566862	134.0
4.3827	487.847786664	144.0
4.393	488.124430727	136.0
4.4032	488.397133094	127.0
4.4134	488.668591476	124.0
4.4237	488.941454653	105.0
4.4339	489.210430006	124.0
4.4442	489.480797304	131.0
4.4544	489.74731234	143.0
4.4646	490.012611615	141.0
4.4749	490.279283811	139.0
4.4851	490.542156394	130.0
4.4954	490.806389341	149.0
4.5056	491.066857428	107.0
4.5158	491.32613734	126.0
4.5261	491.586759023	144.0
4.5363	491.843667302	126.0
4.5466	492.101905079	114.0
4.5568	492.356463418	124.0
4.567	492.609860539	143.0
4.5773	492.864568989	167.0
4.5875	493.115648287	137.0
4.5978	493.368026919	130.0
4.608	493.616809595	139.0
4.6182	493.8644574	132.0
4.6285	494.113386781	115.0
4.6387	494.358769353	130.0
4.649	494.605421777	132.0
4.6592	494.848559834	136.0
4.6694	495.09058877	129.0
4.6797	495.333870203	145.0
4.6899	495.5736853	125.0
4.7002	495.814741438	116.0
4.7104	496.052362947	121.0
4.7206	496.288900499	144.0
4.7309	496.526662131	139.0
4.7411	496.761036074	130.0
4.7514	496.996622901	126.0
4.7616	497.228853026	141.0
4.7718	497.460023788	122.0
4.7821	497.692390856	145.0
4.7923	497.9214471	133.0
4.8026	498.151688707	129.0
4.8128	498.378649774	136.0
4.823	498.604575513	161.0
4.8333	498.831670415	140.0
4.8435	499.055529612	127.0
4.8538	499.280547278	154.0
4.864	499.502358835	126.0
4.8742	499.723158555	133.0
4.8845	499.945100911	129.0
4.8947	500.163880977	119.0
4.905	500.383793227	130.0
4.9152	500.600572111	116.0
4.9254	500.816362116	108.0
4.9357	501.033268833	137.0
4.9459	501.247085007	135.0
4.9562	501.462007678	130.0
4.9664	501.673868076	143.0
4.9766	501.884762031	106.0
4.9869	502.096747361	138.0
4.9971	502.30571227	131.0
5.0074	502.51575857	140.0
5.0176	502.722812077	128.0
5.0278	502.928921069	128.0
5.0381	503.136096673	126.0
5.0483	503.340320386	128.0
5.0586	503.545600955	124.0
5.0688	503.747956634	123.0
5.079	503.949389228	107.0
5.0893	504.151864234	115.0
5.0995	504.351454325	108.0
5.1098	504.552077292	114.0
5.12	504.749841733	115.0
5.1302	504.946704032	100.0
5.1405	505.144585092	110.0
5.1507	505.339646691	102.0
5.161	505.535717733	101.0
5.1712	505.728995105	95.0
5.1814	505.921390804	102.0
5.1917	506.11478215	108.0
5.2019	506.305418006	95.0
5.2122	506.497040401	108.0
5.2224	506.685932511	98.0
5.2326	506.873962953	96.0
5.2429	507.06296645	105.0
5.2531	507.249276978	87.0
5.2634	507.436551661	95.0
5.2736	507.621158006	80.0
5.2838	507.804922234	86.0
5.2941	507.98963744	75.0
5.3043	508.171720776	76.0
5.3146	508.354746392	76.0
5.3248	508.535164213	88.0
5.335	508.714759022	68.0
5.3453	508.895283233	78.0
5.3555	509.073235289	58.0
5.3658	509.252108245	68.0
5.376	509.428432573	66.0
5.3862	509.603952564	70.0
5.3965	509.780380869	57.0
5.4067	509.954295379	60.0
5.417	510.129109894	67.0
5.4272	510.301433608	69.0
5.4374	510.472971234	57.0
5.4477	510.645396565	46.0
5.4579	510.815365136	41.0
5.4682	510.986213293	47.0
5.4784	511.154627162	44.0
5.4886	511.322272778	56.0
5.4989	511.490785958	49.0
5.5091	511.65689812	58.0
5.5194	511.823869911	40.0
5.5296	511.988462645	48.0
5.5398	512.152304557	47.0
5.5501	512.31699435	40.0
5.5603	512.4793376	31.0
5.5706	512.642520975	39.0
5.5808	512.803379272	40.0
5.591	512.963503783	31.0
5.6013	513.124456936	43.0
5.6115	513.283116788	26.0
5.6218	513.442597703	27.0
5.632	513.599806293	27.0
5.6422	513.756297745	30.0
5.6525	513.91359904	26.0
5.6627	514.068659065	24.0
5.673	514.224521525	25.0
5.6832	514.378163217	30.0
5.6934	514.531104041	20.0
5.7037	514.684836334	28.0
5.7139	514.836378209	28.0
5.7242	514.988704313	13.0
5.7344	515.138860035	17.0
5.7446	515.288330792	19.0
5.7549	515.43857506	10.0
5.7651	515.586678608	15.0
5.7754	515.735548592	17.0
5.7856	515.882297437	19.0
5.7958	516.028376859	15.0
5.8061	516.175212241	15.0
5.8163	516.319955475	14.0
5.8266	516.465447754	20.0
5.8368	516.608867022	16.0
5.847	516.751632054	16.0
5.8573	516.895135895	11.0
5.8675	517.036595056	13.0
5.8778	517.178786267	13.0
5.888	517.318951501	12.0
5.8982	517.458477345	14.0
5.9085	517.598725233	16.0
5.9187	517.736974834	10.0
5.929	517.875939875	11.0
5.9392	518.012924906	12.0
5.9494	518.149285054	10.0
5.9597	518.286350864	14.0
5.9699	518.421463726	11.0
5.9802	518.557275795	5.0
5.9904	518.69115278	4.0
6.0006	518.824419058	6.0
6.0109	518.958374988	11.0
6.0211	519.09042228	8.0
6.0314	519.223152916	3.0
6.0416	519.353992371	14.0
6.0518	519.484234977	4.0
6.0621	519.615151587	4.0
6.0723	519.744202864	7.0
6.0826	519.87392198	2.0
6.0928	520.001792825	5.0
6.103	520.129080362	6.0
6.1133	520.257026611	8.0
6.1235	520.38314985	7.0
6.1338	520.509925775	4.0
6.144	520.634895364	2.0
6.1542	520.75929488	3.0
6.1645	520.884338162	3.0
6.1747	521.007599796	2.0
6.185	521.131499307	4.0
6.1952	521.253633467	6.0
6.2054	521.375210488	4.0
6.2157	521.497416669	12.0
6.2259	521.617881625	6.0
6.2362	521.738969986	8.0
6.2464	521.858333049	6.0
6.2566	521.977151615	0.0
6.2669	522.096585065	2.0
6.2771	522.214316797	2.0
6.2874	522.33265779	8.0
6.2976	522.44931263	0.0
6.3078	522.565435326	1.0
6.3181	522.682158956	3.0
6.3283	522.797219478	4.0
6.3386	522.912875438	1.0
6.3488	523.026883501	2.0
6.359	523.140371495	0.0
6.3693	523.254446788	2.0
6.3795	523.366896707	1.0
6.3898	523.479928553	2.0
6.4	523.591349893	4.0
6.4102	523.702262963	5.0
6.4205	523.813750006	5.0
6.4307	523.923648554	3.0
6.441	524.034115826	3.0
6.4512	524.143009132	2.0
6.4614	524.2514057	3.0
6.4717	524.360363219	1.0
6.4819	524.467768284	1.0
6.4922	524.575729169	3.0
6.5024	524.6821518	1.0
6.5126	524.788088963	2.0
6.5229	524.89457435	2.0
6.5331	524.999542506	2.0
6.5434	525.105053871	1.0
6.5536	525.209061883	3.0
6.5638	525.312595443	0.0
6.5741	525.416664788	3.0
6.5843	525.519251326	3.0
6.5946	525.622368749	2.0
6.6048	525.724016928	1.0
6.615	525.825201419	2.0
6.6253	525.926909539	2.0
6.6355	526.027168496	3.0
6.6458	526.127946292	1.0
6.656	526.22728818	2.0
6.6662	526.326176901	2.0
6.6765	526.42557737	1.0
6.6867	526.523561556	0.0
6.697	526.622052809	2.0
6.7072	526.719140734	2.0
6.7174	526.815785773	2.0
6.7277	526.912930949	2.0
6.7379	527.008691976	0.0
6.7482	527.104948566	2.0
6.7584	527.199833667	0.0
6.7686	527.294285931	0.0
6.7789	527.389226985	1.0
6.7891	527.482815294	0.0
6.7994	527.576887923	0.0
6.8096	527.66962018	1.0
6.8198	527.761929421	0.0
6.8301	527.854716361	3.0
6.8403	527.94618125	3.0
6.8506	528.038119468	2.0
6.8608	528.128747727	3.0
6.871	528.218962568	0.0
6.8813	528.30964427	1.0
6.8915	528.399033916	0.0
6.9018	528.488886152	0.0
6.912	528.577458151	2.0
6.9222	528.665626111	1.0
6.9325	528.75425034	1.0
6.9427	528.841611828	2.0
6.953	528.929425411	0.0
6.9632	529.015987803	4.0
6.9734	529.102155325	0.0
6.9837	529.188768762	2.0
6.9939	529.274148109	0.0
7.0042	529.359969294	5.0
7.0144	529.444567676	0.0
7.0246	529.528780147	1.0
7.0349	529.613428416	4.0
7.0451	529.696870595	2.0
7.0554	529.780744586	1.0
7.0656	529.86342352	2.0
7.0758	529.945725297	0.0
7.0861	530.028452986	1.0
7.0963	530.110001949	0.0
7.1066	530.191972927	3.0
7.1168	530.272775962	0.0
7.127	530.353210398	1.0
7.1373	530.434061081	2.0
7.1475	530.513759784	1.0
7.1578	530.593870926	1.0
7.168	530.672840625	2.0
7.1782	530.751450087	1.0
7.1885	530.830466353	0.0
7.1987	530.908356776	0.0
7.209	530.98665028	1.0
7.2192	531.063828238	1.0
7.2294	531.140654135	3.0
7.2397	531.217877604	1.0
7.2499	531.294000774	1.0
7.2602	531.37051788	0.0
7.2704	531.445944752	2.0
7.2806	531.521027548	3.0
7.2909	531.596498898	0.0
7.3011	531.670894913	0.0
7.3114	531.745675926	3.0
7.3216	531.81939144	1.0
7.3318	531.892770687	1.0
7.3421	531.966529671	1.0
7.3523	532.039237717	3.0
7.3626	532.112322028	2.0
7.3728	532.184365014	0.0
7.383	532.256079362	0.0
7.3933	532.328164832	0.0
7.4035	532.399223209	2.0
7.4138	532.470649312	0.0
7.424	532.541057719	1.0
7.4342	532.611144943	0.0
7.4445	532.681594869	4.0
7.4547	532.751041005	0.0
7.465	532.820846525	2.0
7.4752	532.889657439	2.0
7.4854	532.958154457	2.0
7.4957	533.027005947	2.0
7.5059	533.094876424	1.0
7.5162	533.16309813	0.0
7.5264	533.230347795	3.0
7.5366	533.297290688	0.0
7.5469	533.36458001	2.0
7.5571	533.430910576	0.0
7.5674	533.497584403	0.0
7.5776	533.563308243	0.0
7.5878	533.628732272	2.0
7.5981	533.694494869	1.0
7.6083	533.759320464	0.0
7.6186	533.824481531	0.0
7.6288	533.888714167	1.0
7.639	533.952653793	0.0
7.6493	534.016924305	2.0
7.6595	534.080279075	2.0
7.6698	534.143961706	1.0
7.68	534.20673697	0.0
7.6902	534.269225872	0.0
7.7005	534.332038154	2.0
7.7107	534.393955471	0.0
7.721	534.456193209	0.0
7.7312	534.517544168	1.0
7.7414	534.578615263	0.0
7.7517	534.6400024	0.0
7.7619	534.700514877	2.0
7.7722	534.761340506	0.0
7.7824	534.821299476	0.0
7.7926	534.880984931	0.0
7.8029	534.940979258	1.0
7.8131	535.00011877	1.0
7.8234	535.059564329	1.0
7.8336	535.118162892	2.0
7.8438	535.176494147	2.0
7.8541	535.235127265	2.0
7.8643	535.292924964	1.0
7.8746	535.351021765	0.0
7.8848	535.408290789	1.0
7.895	535.465298568	1.0
7.9053	535.522601362	0.0
