TL-DOS Lehrstuhlversuch
detector=R1407303
job_number=2015-10-20-013
irradiation_dose [mSv]=5.0

[BEGIN DATA]
time [sec] 	 temperature [K] 	 photoncount 
0.0	113.454200023	0.0
0.0102	115.442338056	0.0
0.0205	117.440722549	0.0
0.0307	119.410592011	2.0
0.041	121.390613779	0.0
0.0512	123.342382534	1.0
0.0614	125.285207145	0.0
0.0717	127.23804468	1.0
0.0819	129.163017095	0.0
0.0922	131.097910426	1.0
0.1024	133.005194684	1.0
0.1126	134.903738652	1.0
0.1229	136.81206733	3.0
0.1331	138.693165987	1.0
0.1434	140.583959443	1.0
0.1536	142.447773089	2.0
0.1638	144.303045654	0.0
0.1741	146.167879916	0.0
0.1843	148.00610478	0.0
0.1946	149.853803481	3.0
0.2048	151.675137293	0.0
0.215	153.488124691	0.0
0.2253	155.310455857	2.0
0.2355	157.106784104	2.0
0.2458	158.912370261	1.0
0.256	160.692192434	0.0
0.2662	162.463858424	1.0
0.2765	164.24465522	0.0
0.2867	166.000041752	1.0
0.297	167.76447519	1.0
0.3072	169.503731853	0.0
0.3174	171.235018228	0.0
0.3277	172.9752273	1.0
0.3379	174.690605257	0.0
0.3482	176.414823923	0.0
0.3584	178.114439641	0.0
0.3686	179.806266728	0.0
0.3789	181.506813148	0.0
0.3891	183.183094401	0.0
0.3994	184.868014866	0.0
0.4096	186.528893131	0.0
0.4198	188.182160282	0.0
0.4301	189.843948036	0.0
0.4403	191.482023672	0.0
0.4506	193.128541617	0.0
0.4608	194.751565328	0.0
0.471	196.367151398	0.0
0.4813	197.99106387	0.0
0.4915	199.591804667	0.0
0.5018	201.200795356	0.0
0.512	202.786827291	0.0
0.5222	204.365591102	0.0
0.5325	205.952491541	0.0
0.5427	207.516748431	0.0
0.553	209.089067183	0.0
0.5632	210.638950453	1.0
0.5734	212.181731254	0.0
0.5837	213.732463234	0.0
0.5939	215.261067754	0.0
0.6042	216.797550392	1.0
0.6144	218.312108894	0.0
0.6246	219.819726806	0.0
0.6349	221.335114674	0.0
0.6451	222.828879409	1.0
0.6554	224.330342704	0.0
0.6656	225.810381557	1.0
0.6758	227.283638009	0.0
0.6861	228.764487324	2.0
0.6963	230.224206339	0.0
0.7066	231.691448449	0.0
0.7168	233.13775442	0.0
0.727	234.577432574	0.0
0.7373	236.024530536	1.0
0.7475	237.450979796	0.0
0.7578	238.884780687	0.0
0.768	240.298122612	0.0
0.7782	241.704987781	0.0
0.7885	243.119103646	0.0
0.7987	244.513041433	0.0
0.809	245.914163292	0.0
0.8192	247.295292486	1.0
0.8294	248.670092539	1.0
0.8397	250.051978032	0.0
0.8499	251.414145343	1.0
0.8602	252.783332988	1.0
0.8704	254.132983638	1.0
0.8806	255.4764494	0.0
0.8909	256.826839112	0.0
0.9011	258.157960057	0.0
0.9114	259.495941329	0.0
0.9216	260.81483089	0.0
0.9318	262.12767653	2.0
0.9421	263.447288309	1.0
0.9523	264.748070493	0.0
0.9626	266.055556644	0.0
0.9728	267.34438622	0.0
0.983	268.627309628	0.0
0.9933	269.916844961	2.0
1.0035	271.187979862	0.0
1.0138	272.465665933	0.0
1.024	273.725120648	0.0
1.0342	274.978803807	0.0
1.0445	276.238948194	0.0
1.0547	277.481111529	0.0
1.065	278.72967672	0.0
1.0752	279.960426083	1.0
1.0854	281.185535435	0.0
1.0957	282.416958751	2.0
1.1059	283.630810836	2.0
1.1162	284.850918868	2.0
1.1264	286.053617128	2.0
1.1366	287.250803923	0.0
1.1469	288.454160774	4.0
1.1571	289.640346877	2.0
1.1674	290.832646342	1.0
1.1776	292.007932837	2.0
1.1878	293.177833482	1.0
1.1981	294.353763558	0.0
1.2083	295.512914239	2.0
1.2186	296.678038946	1.0
1.2288	297.826538441	0.0
1.239	298.969774841	0.0
1.2493	300.118903249	4.0
1.2595	301.251634695	3.0
1.2698	302.39020401	6.0
1.28	303.512527031	2.0
1.2902	304.629706913	0.0
1.3005	305.752644514	6.0
1.3107	306.859558871	3.0
1.321	307.972178039	3.0
1.3312	309.068921199	3.0
1.3414	310.160638441	2.0
1.3517	311.257982172	4.0
1.3619	312.339667859	1.0
1.3722	313.426928335	6.0
1.3824	314.498674646	9.0
1.3926	315.565509589	4.0
1.4029	316.637842783	6.0
1.4131	317.69487481	4.0
1.4234	318.757354566	6.0
1.4336	319.804673753	10.0
1.4438	320.847193513	3.0
1.4541	321.895086208	8.0
1.4643	322.928026478	15.0
1.4746	323.966290312	12.0
1.4848	324.989739117	9.0
1.495	326.008497882	10.0
1.5053	327.032507122	9.0
1.5155	328.041904732	18.0
1.5258	329.056504572	14.0
1.536	330.056627045	16.0
1.5462	331.052166373	23.0
1.5565	332.052836508	14.0
1.5667	333.039228039	18.0
1.577	334.030703232	14.0
1.5872	335.008031024	13.0
1.5974	335.98088013	22.0
1.6077	336.958743102	22.0
1.6179	337.922652907	24.0
1.6282	338.891530507	19.0
1.6384	339.846583152	16.0
1.6486	340.797259189	25.0
1.6589	341.752834817	40.0
1.6691	342.694775296	27.0
1.6794	343.641570345	35.0
1.6896	344.574855536	39.0
1.6998	345.50386387	34.0
1.7101	346.437660124	39.0
1.7203	347.358132	56.0
1.7306	348.283347801	48.0
1.7408	349.195361659	55.0
1.751	350.103196138	60.0
1.7613	351.015709411	67.0
1.7715	351.915201994	50.0
1.7818	352.819330379	74.0
1.792	353.710557719	78.0
1.8022	354.597700934	74.0
1.8125	355.489416306	77.0
1.8227	356.368407754	71.0
1.833	357.251929345	88.0
1.8432	358.122843929	99.0
1.8534	358.989767475	110.0
1.8637	359.861158969	114.0
1.8739	360.720116541	132.0
1.8842	361.583501005	128.0
1.8944	362.434565801	132.0
1.9046	363.281730522	145.0
1.9149	364.133261357	137.0
1.9251	364.972641663	165.0
1.9354	365.816347965	170.0
1.9456	366.648015386	181.0
1.9558	367.475871622	175.0
1.9661	368.30799446	191.0
1.9763	369.128243704	211.0
1.9866	369.952720345	196.0
1.9968	370.765432494	228.0
2.007	371.574420322	233.0
2.0173	372.387577509	244.0
2.0275	373.189131723	283.0
2.0378	373.994816983	268.0
2.048	374.789005887	303.0
2.0582	375.579555355	318.0
2.0685	376.374179153	323.0
2.0787	377.157464432	357.0
2.089	377.944786603	401.0
2.0992	378.720874442	398.0
2.1094	379.493405793	378.0
2.1197	380.269918614	435.0
2.1299	381.035351341	442.0
2.1402	381.804728953	452.0
2.1504	382.563128283	487.0
2.1606	383.318052185	532.0
2.1709	384.076866812	518.0
2.1811	384.824853881	575.0
2.1914	385.576695923	581.0
2.2016	386.3178099	629.0
2.2118	387.055527661	638.0
2.2221	387.797047468	638.0
2.2323	388.527986499	661.0
2.2426	389.262692641	710.0
2.2528	389.98691523	725.0
2.263	390.707819009	742.0
2.2733	391.432438179	773.0
2.2835	392.146717728	849.0
2.2938	392.864678529	887.0
2.304	393.572394717	842.0
2.3142	394.276867737	883.0
2.3245	394.984971468	878.0
2.3347	395.682971236	900.0
2.345	396.384568354	928.0
2.3552	397.076154353	968.0
2.3654	397.764571102	1011.0
2.3757	398.456535811	987.0
2.3859	399.138626846	951.0
2.3962	399.82423324	1005.0
2.4064	400.500056688	1038.0
2.4166	401.172783118	1047.0
2.4269	401.848976644	1046.0
2.4371	402.515521536	989.0
2.4474	403.185501664	1081.0
2.4576	403.845921819	1076.0
2.4678	404.503315543	1063.0
2.4781	405.164097341	1068.0
2.4883	405.815450415	1061.0
2.4986	406.470160431	1001.0
2.5088	407.115528363	1036.0
2.519	407.757938842	1017.0
2.5293	408.403660174	987.0
2.5395	409.040167681	964.0
2.5498	409.679955619	953.0
2.56	410.310614396	926.0
2.5702	410.938383127	869.0
2.5805	411.56938725	898.0
2.5907	412.191387549	904.0
2.601	412.816593511	848.0
2.6112	413.432878383	763.0
2.6214	414.046339078	817.0
2.6317	414.662961425	669.0
2.6419	415.270785162	716.0
2.6522	415.881741499	660.0
2.6624	416.483980074	737.0
2.6726	417.083458841	616.0
2.6829	417.6860272	601.0
2.6931	418.279997485	596.0
2.7034	418.877028973	601.0
2.7136	419.465541394	582.0
2.7238	420.051356907	527.0
2.7341	420.640191594	547.0
2.7443	421.220624175	523.0
2.7546	421.804048187	488.0
2.7648	422.379147298	510.0
2.775	422.951610969	540.0
2.7853	423.527025001	510.0
2.7955	424.094228427	499.0
2.8058	424.664355103	478.0
2.816	425.226346619	486.0
2.8262	425.785762761	510.0
2.8365	426.348062021	474.0
2.8467	426.902337808	468.0
2.857	427.459470221	541.0
2.8672	428.008652888	529.0
2.8774	428.55531888	542.0
2.8877	429.104802277	531.0
2.8979	429.646445072	583.0
2.9082	430.190879384	558.0
2.9184	430.727545141	622.0
2.9286	431.261751582	624.0
2.9389	431.798711214	623.0
2.9491	432.328008947	594.0
2.9594	432.860034573	629.0
2.9696	433.384468703	696.0
2.9798	433.90649957	680.0
2.9901	434.431220877	685.0
3.0003	434.948454915	687.0
3.0106	435.468354672	773.0
3.0208	435.980835957	754.0
3.031	436.490968754	707.0
3.0413	437.003730672	762.0
3.0515	437.509175968	804.0
3.0618	438.017226227	787.0
3.072	438.518027096	753.0
3.0822	439.016533003	810.0
3.0925	439.517608108	865.0
3.1027	440.011533351	875.0
3.113	440.508004185	882.0
3.1232	440.997390856	895.0
3.1334	441.484534871	950.0
3.1437	441.974189528	912.0
3.1539	442.456857282	873.0
3.1642	442.942012607	962.0
3.1744	443.420245231	957.0
3.1846	443.896286314	899.0
3.1949	444.374780816	983.0
3.2051	444.84644766	889.0
3.2154	445.320545379	913.0
3.2256	445.787878178	950.0
3.2358	446.253069385	919.0
3.2461	446.720658094	1012.0
3.2563	447.181574759	959.0
3.2666	447.644866895	1006.0
3.2768	448.101548297	999.0
3.287	448.556136918	953.0
3.2973	449.013068396	991.0
3.3075	449.4634799	970.0
3.3178	449.916212733	966.0
3.328	450.362485503	951.0
3.3382	450.80671319	976.0
3.3485	451.253230336	969.0
3.3587	451.693376111	940.0
3.369	452.135790308	990.0
3.3792	452.571891678	988.0
3.3894	453.005994577	923.0
3.3997	453.442334754	956.0
3.4099	453.872448775	901.0
3.4202	454.304779516	951.0
3.4304	454.730941312	912.0
3.4406	455.155150186	883.0
3.4509	455.581545346	889.0
3.4611	456.001856256	878.0
3.4714	456.424333363	835.0
3.4816	456.840782126	892.0
3.4918	457.255322479	819.0
3.5021	457.671999288	826.0
3.5123	458.082730518	849.0
3.5226	458.495578573	753.0
3.5328	458.902535682	877.0
3.543	459.307627877	800.0
3.5533	459.714807834	819.0
3.5635	460.116177724	811.0
3.5738	460.519616192	806.0
3.584	460.91729798	801.0
3.5942	461.313157358	835.0
3.6045	461.711056914	797.0
3.6147	462.103278826	753.0
3.625	462.497522169	761.0
3.6352	462.886140038	800.0
3.6454	463.272977033	762.0
3.6557	463.661807707	778.0
3.6659	464.04509014	803.0
3.6762	464.430347932	817.0
3.6864	464.810108466	742.0
3.6966	465.188128715	745.0
3.7069	465.568097203	764.0
3.7171	465.942643905	778.0
3.7274	466.319120945	728.0
3.7376	466.690226018	804.0
3.7478	467.059630471	776.0
3.7581	467.43093876	779.0
3.7683	467.796948835	756.0
3.7786	468.164845252	733.0
3.7888	468.52749214	789.0
3.799	468.888477168	754.0
3.8093	469.251322639	799.0
3.8195	469.608990653	788.0
3.8298	469.968502015	784.0
3.84	470.322883495	777.0
3.8502	470.675640992	745.0
3.8605	471.03021653	741.0
3.8707	471.379732614	789.0
3.881	471.731050033	784.0
3.8912	472.07735449	768.0
3.9014	472.422071977	749.0
3.9117	472.768566068	782.0
3.9219	473.110116021	750.0
3.9322	473.453426252	744.0
3.9424	473.791837776	768.0
3.9526	474.1286985	734.0
3.9629	474.467295336	762.0
3.9731	474.80106072	790.0
3.9834	475.136546263	773.0
3.9936	475.467244748	792.0
4.0038	475.79642778	750.0
4.0141	476.127307355	745.0
4.0243	476.453465595	744.0
4.0346	476.781304788	803.0
4.0448	477.104466031	761.0
4.055	477.42614636	712.0
4.0653	477.749484564	701.0
4.0755	478.068209041	724.0
4.0858	478.38857616	670.0
4.096	478.704371947	757.0
4.1062	479.018720574	744.0
4.1165	479.334689289	713.0
4.1267	479.646149434	699.0
4.137	479.959214781	675.0
4.1472	480.267812985	719.0
4.1574	480.574997012	730.0
4.1677	480.883764204	685.0
4.1779	481.188125583	749.0
4.1882	481.494055579	707.0
4.1984	481.795620248	646.0
4.2086	482.095802971	713.0
4.2189	482.397532775	716.0
4.2291	482.694957183	675.0
4.2394	482.993914457	683.0
4.2496	483.288605897	688.0
4.2598	483.581946888	707.0
4.2701	483.8767997	688.0
4.2803	484.167445244	699.0
4.2906	484.459588717	646.0
4.3008	484.747563582	680.0
4.311	485.034218778	671.0
4.3213	485.322351337	667.0
4.3315	485.60637252	657.0
4.3418	485.891857491	636.0
4.352	486.173268865	680.0
4.3622	486.453390648	652.0
4.3725	486.734956121	650.0
4.3827	487.012503926	674.0
4.393	487.291482154	666.0
4.4032	487.566479632	684.0
4.4134	487.84021691	662.0
4.4237	488.115364974	677.0
4.4339	488.386586939	648.0
4.4442	488.659206727	631.0
4.4544	488.927936492	614.0
4.4646	489.195434781	650.0
4.4749	489.464311701	632.0
4.4851	489.729352005	634.0
4.4954	489.995758273	635.0
4.5056	490.258363179	674.0
4.5158	490.519764676	621.0
4.5261	490.782513383	645.0
4.5363	491.041512918	620.0
4.5466	491.301847284	617.0
4.5568	491.558466928	621.0
4.567	491.813910591	611.0
4.5773	492.070670759	615.0
4.5875	492.323767205	674.0
4.5978	492.578168059	643.0
4.608	492.828938857	643.0
4.6182	493.078560476	576.0
4.6285	493.329468594	588.0
4.6387	493.576796495	657.0
4.649	493.825399072	640.0
4.6592	494.07045433	588.0
4.6694	494.314386601	609.0
4.6797	494.559576049	667.0
4.6899	494.801266879	626.0
4.7002	495.044203334	626.0
4.7104	495.283673319	636.0
4.7206	495.522045913	686.0
4.7309	495.761647031	651.0
4.7411	495.99782927	614.0
4.7514	496.235228745	613.0
4.7616	496.469240756	688.0
4.7718	496.702180388	678.0
4.7821	496.936320544	688.0
4.7923	497.167119743	680.0
4.8026	497.399108435	605.0
4.8128	497.627786871	638.0
4.823	497.855417369	617.0
4.8333	498.084221028	655.0
4.8435	498.309759878	623.0
4.8538	498.536461109	664.0
4.864	498.759927532	636.0
4.8742	498.9823699	643.0
4.8845	499.205958691	606.0
4.8947	499.426357085	633.0
4.905	499.647891367	603.0
4.9152	499.866264567	623.0
4.9254	500.083637054	637.0
4.9357	500.302129834	668.0
4.9459	500.517504932	602.0
4.9562	500.733990029	620.0
4.9664	500.947386092	629.0
4.9766	501.159804249	621.0
4.9869	501.373317166	607.0
4.9971	501.583783459	593.0
5.0074	501.795334451	597.0
5.0176	502.003866814	618.0
5.0278	502.21144356	567.0
5.0381	502.420090115	605.0
5.0483	502.625759483	567.0
5.0586	502.832488829	627.0
5.0688	503.036268345	599.0
5.079	503.239114025	572.0
5.0893	503.44300513	579.0
5.0995	503.643986905	556.0
5.1098	503.846004498	590.0
5.12	504.045139495	528.0
5.1302	504.243361938	534.0
5.1405	504.44260598	525.0
5.1507	504.639007	548.0
5.161	504.836420231	502.0
5.1712	505.031016565	502.0
5.1814	505.224721144	541.0
5.1917	505.419424038	491.0
5.2019	505.611348708	504.0
5.2122	505.804262518	502.0
5.2224	505.994423634	503.0
5.2326	506.18371332	420.0
5.2429	506.373978567	436.0
5.2531	506.561528911	455.0
5.2634	506.750045851	435.0
5.2736	506.935872835	441.0
5.2838	507.120848252	428.0
5.2941	507.306776994	439.0
5.3043	507.490052712	410.0
5.3146	507.674272995	385.0
5.3248	507.855864631	338.0
5.335	508.036624109	391.0
5.3453	508.218315184	403.0
5.3555	508.397413701	341.0
5.3658	508.577435256	376.0
5.376	508.754888076	356.0
5.3862	508.931527703	328.0
5.3965	509.109077695	334.0
5.4067	509.284094219	333.0
5.417	509.460012743	299.0
5.4272	509.633421078	288.0
5.4374	509.806034754	296.0
5.4477	509.979538047	316.0
5.4579	510.150565613	299.0
5.4682	510.322474621	278.0
5.4784	510.491930652	279.0
5.4886	510.660610137	262.0
5.4989	510.830158962	269.0
5.5091	510.997288487	230.0
5.5194	511.165279364	224.0
5.5296	511.330873172	192.0
5.5398	511.495708133	215.0
5.5501	511.661392619	219.0
5.5603	511.824712947	208.0
5.5706	511.988874995	186.0
5.5808	512.150694607	215.0
5.591	512.311772668	170.0
5.6013	512.473680892	172.0
5.6115	512.63327884	188.0
5.6218	512.793699325	158.0
5.632	512.951830762	184.0
5.6422	513.10923755	160.0
5.6525	513.267455579	152.0
5.6627	513.423415989	161.0
5.673	513.580180188	137.0
5.6832	513.734707511	130.0
5.6934	513.8885267	130.0
5.7037	514.043138642	120.0
5.7139	514.19554442	112.0
5.7242	514.348735666	94.0
5.7344	514.49974102	115.0
5.7446	514.650054379	111.0
5.7549	514.801142423	108.0
5.7651	514.950074585	98.0
5.7754	515.099774313	89.0
5.7856	515.24733797	89.0
5.7958	515.394225403	79.0
5.8061	515.541869865	102.0
5.8163	515.687407582	99.0
5.8266	515.83369537	94.0
5.8368	515.977895772	68.0
5.847	516.121435364	80.0
5.8573	516.26571473	72.0
5.8675	516.407935367	68.0
5.8778	516.55088898	58.0
5.888	516.691802783	54.0
5.8982	516.832070836	66.0
5.9085	516.973061802	66.0
5.9187	517.112040962	68.0
5.929	517.251736393	54.0
5.9392	517.389438503	74.0
5.9494	517.526509583	34.0
5.9597	517.664287098	58.0
5.9699	517.800098661	39.0
5.9802	517.936610169	52.0
5.9904	518.071173788	42.0
6.0006	518.205120758	39.0
6.0109	518.339758064	29.0
6.0211	518.472474225	39.0
6.0314	518.605874377	30.0
6.0416	518.737371037	21.0
6.0518	518.868265103	30.0
6.0621	518.999833771	35.0
6.0723	519.129525079	30.0
6.0826	519.25988479	27.0
6.0928	519.388384393	26.0
6.103	519.516295136	22.0
6.1133	519.644865105	33.0
6.1235	519.771600503	17.0
6.1338	519.89898907	15.0
6.144	520.024559924	12.0
6.1542	520.14955534	18.0
6.1645	520.275194956	21.0
6.1747	520.399041815	20.0
6.185	520.523526956	20.0
6.1952	520.646235813	22.0
6.2054	520.768382347	18.0
6.2157	520.891158399	22.0
6.2259	521.012182554	21.0
6.2362	521.133830444	18.0
6.2464	521.253742534	18.0
6.2566	521.373105118	5.0
6.2669	521.493082871	18.0
6.2771	521.611348658	7.0
6.2874	521.730223962	7.0
6.2976	521.847403029	12.0
6.3078	521.964045114	19.0
6.3181	522.081288348	13.0
6.3283	522.196858634	12.0
6.3386	522.313024545	18.0
6.3488	522.42753288	15.0
6.359	522.541516471	9.0
6.3693	522.656087511	14.0
6.3795	522.769023731	15.0
6.3898	522.882542002	11.0
6.4	522.994440476	4.0
6.4102	523.105826165	14.0
6.4205	523.217785914	9.0
6.4307	523.328148105	7.0
6.441	523.43907908	7.0
6.4512	523.548427176	13.0
6.4614	523.657274175	7.0
6.4717	523.76668215	11.0
6.4819	523.874528978	4.0
6.4922	523.982931626	13.0
6.5024	524.089787473	10.0
6.5126	524.196153643	10.0
6.5229	524.303068004	10.0
6.5331	524.408456798	5.0
6.5434	524.514388746	3.0
6.5536	524.618809146	8.0
6.5638	524.72275103	4.0
6.5741	524.82722861	5.0
6.5843	524.930215395	0.0
6.5946	525.033732953	4.0
6.6048	525.135773415	5.0
6.615	525.237346268	6.0
6.6253	525.339442606	4.0
6.6355	525.440082128	7.0
6.6458	525.541240325	10.0
6.656	525.640955092	9.0
6.6662	525.740212908	7.0
6.6765	525.839982278	3.0
6.6867	525.938328035	5.0
6.697	526.037180645	4.0
6.7072	526.134622724	7.0
6.7174	526.231618267	7.0
6.7277	526.329113704	5.0
6.7379	526.425217976	11.0
6.7482	526.521817549	5.0
6.7584	526.617038739	5.0
6.7686	526.711823569	2.0
6.7789	526.807096902	6.0
6.7891	526.901010775	5.0
6.7994	526.995408661	7.0
6.8096	527.08845958	5.0
6.8198	527.181084086	1.0
6.8301	527.274185959	2.0
6.8403	527.365959358	11.0
6.8506	527.458205738	4.0
6.8608	527.549135851	3.0
6.871	527.639649269	4.0
6.8813	527.730629174	7.0
6.8915	527.820310884	11.0
6.9018	527.910454795	2.0
6.912	527.999312438	0.0
6.9222	528.087762884	3.0
6.9325	528.176669186	4.0
6.9427	528.26430688	2.0
6.953	528.352396241	5.0
6.9632	528.439228651	3.0
6.9734	528.525663144	2.0
6.9837	528.612543104	6.0
6.9939	528.698183369	6.0
7.0042	528.784265007	2.0
7.0144	528.869118342	5.0
7.0246	528.95358283	9.0
7.0349	529.038482631	4.0
7.0451	529.122170993	4.0
7.0554	529.206290668	5.0
7.0656	529.289210035	4.0
7.0758	529.371749418	5.0
7.0861	529.454714192	3.0
7.0963	529.536495138	1.0
7.1066	529.618697566	4.0
7.1168	529.699727045	3.0
7.127	529.780385199	6.0
7.1373	529.861459049	3.0
7.1475	529.941376053	5.0
7.1578	530.021704932	4.0
7.168	530.100887596	4.0
7.1782	530.179707399	1.0
7.1885	530.258933422	4.0
7.1987	530.337028967	1.0
7.209	530.415526999	5.0
7.2192	530.492904941	6.0
7.2294	530.569928291	5.0
7.2397	530.647348604	3.0
7.2499	530.723664203	3.0
7.2602	530.800373117	5.0
7.2704	530.875987469	8.0
7.2806	530.951255312	6.0
7.2909	531.026911069	2.0
7.3011	531.101487292	2.0
7.3114	531.176447865	5.0
7.3216	531.250338823	4.0
7.3318	531.323891169	2.0
7.3421	531.39782259	2.0
7.3523	531.470699079	3.0
7.3626	531.543951159	5.0
7.3728	531.616158003	0.0
7.383	531.688033952	3.0
7.3933	531.760280335	3.0
7.4035	531.831495832	3.0
7.4138	531.903078359	6.0
7.424	531.973639472	8.0
7.4342	532.043877232	2.0
7.4445	532.114476984	5.0
7.4547	532.184069345	1.0
7.465	532.254020371	4.0
7.4752	532.322973263	2.0
7.4854	532.391610172	2.0
7.4957	532.460600822	1.0
7.5059	532.528607042	5.0
7.5162	532.596963752	0.0
7.5264	532.664345077	2.0
7.5366	532.731417621	3.0
7.5469	532.798835844	2.0
7.5571	532.865292074	4.0
7.5674	532.932090805	1.0
7.5776	532.997936382	7.0
7.5878	533.063480217	3.0
7.5981	533.129361851	2.0
7.6083	533.194303417	3.0
7.6186	533.259579679	0.0
7.6288	533.323924512	3.0
7.639	533.387974478	2.0
7.6493	533.452354546	2.0
7.6595	533.515815971	4.0
7.6698	533.579604464	3.0
7.68	533.642482756	1.0
7.6902	533.705072903	4.0
7.7005	533.767985626	2.0
7.7107	533.830000646	2.0
7.721	533.892335278	5.0
7.7312	533.953780455	3.0
7.7414	534.014944055	5.0
7.7517	534.076422879	3.0
7.7619	534.137024459	3.0
7.7722	534.197938367	4.0
7.7824	534.257983092	2.0
7.7926	534.317752658	2.0
7.8029	534.377830263	5.0
7.8131	534.437050619	3.0
7.8234	534.496576184	3.0
