TL-DOS Lehrstuhlversuch
detector=R1406802
job_number=2015-10-26-005
irradiation_dose [mSv]=10.0

[BEGIN DATA]
time [sec] 	 temperature [K] 	 photoncount 
0.0	99.6076533572	0.0
0.0102	101.724997766	0.0
0.0205	103.852858249	1.0
0.0307	105.949965636	7.0
0.041	108.057488586	0.0
0.0512	110.13455237	2.0
0.0614	112.201714727	1.0
0.0717	114.279143922	2.0
0.0819	116.326548883	0.0
0.0922	118.384122554	1.0
0.1024	120.411958955	0.0
0.1126	122.430128598	0.0
0.1229	124.458321749	2.0
0.1331	126.457202255	2.0
0.1434	128.466010469	4.0
0.1536	130.445786199	0.0
0.1638	132.416124278	0.0
0.1741	134.396248303	2.0
0.1843	136.347754407	3.0
0.1946	138.308952927	2.0
0.2048	140.241807047	1.0
0.215	142.165447192	0.0
0.2253	144.098641352	2.0
0.2355	146.003895849	2.0
0.2458	147.918613047	1.0
0.256	149.80565762	0.0
0.2662	151.683706595	0.0
0.2765	153.57108315	0.0
0.2867	155.431182224	0.0
0.297	157.300519729	0.0
0.3072	159.142840464	0.0
0.3174	160.9763788	0.0
0.3277	162.819023648	0.0
0.3379	164.635037505	0.0
0.3482	166.460070837	0.0
0.3584	168.25872771	1.0
0.3686	170.048810329	0.0
0.3789	171.847783634	0.0
0.3891	173.620757113	0.0
0.3994	175.402536302	0.0
0.4096	177.158564166	0.0
0.4198	178.90622099	0.0
0.4301	180.662557786	0.0
0.4403	182.393510965	0.0
0.4506	184.133061154	0.0
0.4608	185.847470337	0.0
0.471	187.553706877	0.0
0.4813	189.26841767	0.0
0.4915	190.95834645	0.0
0.5018	192.656668486	0.0
0.512	194.330445369	0.0
0.5222	195.996243306	0.0
0.5325	197.670314652	0.0
0.5427	199.320191329	1.0
0.553	200.978262339	1.0
0.5632	202.612369928	0.0
0.5734	204.238687675	0.0
0.5837	205.873082747	1.0
0.5939	207.483856576	0.0
0.6042	209.102630528	0.0
0.6144	210.698009002	0.0
0.6246	212.285782259	0.0
0.6349	213.881441403	1.0
0.6451	215.454039139	0.0
0.6554	217.034447392	0.0
0.6656	218.592014651	0.0
0.6758	220.142156939	1.0
0.6861	221.699998216	0.0
0.6963	223.23532465	2.0
0.7066	224.778276488	0.0
0.7168	226.298928675	0.0
0.727	227.812331866	0.0
0.7373	229.333251576	0.0
0.7475	230.832190056	0.0
0.7578	232.338573215	0.0
0.768	233.823185234	0.0
0.7782	235.300720061	0.0
0.7885	236.785593263	1.0
0.7987	238.249006201	0.0
0.809	239.719687374	0.0
0.8192	241.169113394	0.0
0.8294	242.611629956	2.0
0.8397	244.061310969	1.0
0.8499	245.490040335	0.0
0.8602	246.925865677	0.0
0.8704	248.340939623	0.0
0.8806	249.749267868	1.0
0.8909	251.164590763	0.0
0.9011	252.559458576	0.0
0.9114	253.961254186	0.0
0.9216	255.342790217	0.0
0.9318	256.717740424	1.0
0.9421	258.099519505	0.0
0.9523	259.461328298	1.0
0.9626	260.829900697	1.0
0.9728	262.178693679	0.0
0.983	263.521056923	0.0
0.9933	264.870087194	0.0
1.0035	266.199620482	0.0
1.0138	267.535757075	0.0
1.024	268.852583033	0.0
1.0342	270.163131641	1.0
1.0445	271.480189263	0.0
1.0547	272.778211991	0.0
1.065	274.082681522	1.0
1.0752	275.368298089	2.0
1.0854	276.647786082	0.0
1.0957	277.933628824	0.0
1.1059	279.200887806	4.0
1.1162	280.474440799	2.0
1.1264	281.729587652	2.0
1.1366	282.978751182	1.0
1.1469	284.234118849	4.0
1.1571	285.471343201	0.0
1.1674	286.714712393	3.0
1.1776	287.940111679	2.0
1.1878	289.159669449	2.0
1.1981	290.385284315	4.0
1.2083	291.593185872	1.0
1.2186	292.807086633	4.0
1.2288	294.003443383	1.0
1.239	295.194097063	2.0
1.2493	296.390664284	1.0
1.2595	297.569938009	2.0
1.2698	298.755068755	4.0
1.28	299.92307129	7.0
1.2902	301.085505922	4.0
1.3005	302.253713941	4.0
1.3107	303.405038327	7.0
1.321	304.562080919	6.0
1.3312	305.702401249	6.0
1.3414	306.837285636	4.0
1.3517	307.977806579	4.0
1.3619	309.101844039	9.0
1.3722	310.231464181	8.0
1.3824	311.344758386	11.0
1.3926	312.452745483	10.0
1.4029	313.566235546	8.0
1.4131	314.663632792	6.0
1.4234	315.766480409	7.0
1.4336	316.853389021	9.0
1.4438	317.935116305	11.0
1.4541	319.022216133	13.0
1.4643	320.093604552	19.0
1.4746	321.170314165	16.0
1.4848	322.231462534	15.0
1.495	323.287552376	17.0
1.5053	324.34888743	17.0
1.5155	325.394883443	19.0
1.5258	326.446074534	19.0
1.536	327.482073191	20.0
1.5462	328.51313321	29.0
1.5565	329.549314127	29.0
1.5667	330.570519545	25.0
1.577	331.596796916	35.0
1.5872	332.608241921	36.0
1.5974	333.614865335	36.0
1.6077	334.62648828	44.0
1.6179	335.623490652	38.0
1.6282	336.62544477	48.0
1.6384	337.612918055	45.0
1.6486	338.595684024	42.0
1.6589	339.583331032	50.0
1.6691	340.556703982	52.0
1.6794	341.534911318	57.0
1.6896	342.498981025	53.0
1.6998	343.458454981	58.0
1.7101	344.422694293	78.0
1.7203	345.372997849	64.0
1.7306	346.328021215	71.0
1.7408	347.269242018	98.0
1.751	348.205975993	92.0
1.7613	349.147362383	92.0
1.7715	350.0751433	97.0
1.7818	351.007532165	128.0
1.792	351.926445596	124.0
1.8022	352.840978538	132.0
1.8125	353.76005363	121.0
1.8227	354.665845706	142.0
1.833	355.576136519	135.0
1.8432	356.473271272	159.0
1.8534	357.366129355	151.0
1.8637	358.263421938	192.0
1.8739	359.147746318	197.0
1.8842	360.036462813	182.0
1.8944	360.912335053	231.0
1.9046	361.784031983	213.0
1.9149	362.660058312	220.0
1.9251	363.52342379	255.0
1.9354	364.391077289	270.0
1.9456	365.246190948	261.0
1.9558	366.097228252	291.0
1.9661	366.952492348	313.0
1.9763	367.795395661	330.0
1.9866	368.642485367	364.0
1.9968	369.477332431	368.0
2.007	370.308199754	382.0
2.0173	371.143193691	418.0
2.0275	371.966119801	428.0
2.0378	372.793133085	469.0
2.048	373.608193884	507.0
2.0582	374.419369263	531.0
2.0685	375.234573452	537.0
2.0787	376.03799583	557.0
2.089	376.845408512	595.0
2.0992	377.641151988	616.0
2.1094	378.433102132	674.0
2.1197	379.228985601	692.0
2.1299	380.013366492	687.0
2.1402	380.801643116	755.0
2.1504	381.578527101	778.0
2.1606	382.351707655	810.0
2.1709	383.128728314	908.0
2.1811	383.894519012	911.0
2.1914	384.664113111	996.0
2.2016	385.422584582	946.0
2.2118	386.177440396	1053.0
2.2221	386.936045302	1008.0
2.2323	387.683686402	1074.0
2.2426	388.435040762	1139.0
2.2528	389.175536104	1188.0
2.263	389.912501482	1260.0
2.2733	390.653127098	1316.0
2.2835	391.383048754	1316.0
2.2938	392.116595664	1400.0
2.304	392.83954092	1368.0
2.3142	393.559039875	1393.0
2.3245	394.282112317	1478.0
2.3347	394.994734488	1430.0
2.345	395.710895994	1541.0
2.3552	396.41670711	1583.0
2.3654	397.119153602	1558.0
2.3757	397.825088889	1573.0
2.3859	398.520821583	1635.0
2.3962	399.220009725	1683.0
2.4064	399.909092788	1713.0
2.4166	400.59489097	1605.0
2.4269	401.284095261	1660.0
2.4371	401.963338764	1676.0
2.4474	402.645955821	1713.0
2.4576	403.318707293	1792.0
2.4678	403.988251737	1720.0
2.4781	404.661121564	1695.0
2.4883	405.324266679	1732.0
2.4986	405.990705392	1624.0
2.5088	406.64751234	1574.0
2.519	407.301188268	1635.0
2.5293	407.958110766	1670.0
2.5395	408.605539031	1621.0
2.5498	409.256182835	1638.0
2.56	409.897423151	1523.0
2.5702	410.535606654	1497.0
2.5805	411.176959781	1486.0
2.5907	411.809043694	1463.0
2.601	412.444266936	1381.0
2.6112	413.070309557	1340.0
2.6214	413.693367813	1292.0
2.6317	414.319520571	1212.0
2.6419	414.936623799	1268.0
2.6522	415.556791953	1250.0
2.6624	416.167997071	1147.0
2.6726	416.776288555	1161.0
2.6829	417.3876012	1105.0
2.6931	417.990078794	1091.0
2.7034	418.595548673	1011.0
2.7136	419.192267943	1047.0
2.7238	419.786142635	1055.0
2.7341	420.382966884	996.0
2.7443	420.971165477	985.0
2.7546	421.562285437	923.0
2.7648	422.144862182	924.0
2.775	422.724661766	977.0
2.7853	423.307341001	958.0
2.7955	423.881599013	967.0
2.8058	424.458709153	986.0
2.816	425.027478557	958.0
2.8262	425.593536619	986.0
2.8365	426.162406085	1033.0
2.8467	426.723053913	1036.0
2.857	427.286486273	1098.0
2.8672	427.841775576	1083.0
2.8774	428.394417798	1130.0
2.8877	428.949804791	1013.0
2.8979	429.497165003	1105.0
2.9082	430.047243753	1189.0
2.9184	430.58937244	1160.0
2.9286	431.128916783	1262.0
2.9389	431.671140844	1263.0
2.9491	432.205528364	1235.0
2.9594	432.74256999	1324.0
2.9696	433.271849974	1315.0
2.9798	433.798606863	1404.0
2.9901	434.327979961	1426.0
3.0003	434.849702247	1406.0
3.0106	435.374015735	1431.0
3.0208	435.890751536	1517.0
3.031	436.405024041	1505.0
3.0413	436.921850749	1508.0
3.0515	437.431207972	1634.0
3.0618	437.943094986	1611.0
3.072	438.447583907	1708.0
3.0822	438.949667913	1582.0
3.0925	439.454245586	1650.0
3.1027	439.951530805	1674.0
3.113	440.451285858	1782.0
3.1232	440.943818155	1770.0
3.1334	441.434002535	1873.0
3.1437	441.926621482	1740.0
3.1539	442.412120809	1825.0
3.1642	442.900031433	1834.0
3.1744	443.380890485	1857.0
3.1846	443.859457266	1791.0
3.1949	444.340400914	1898.0
3.2051	444.814393679	1893.0
3.2154	445.290740593	1920.0
3.2256	445.760203061	1939.0
3.2358	446.227427586	1905.0
3.2461	446.696972644	1957.0
3.2563	447.159731559	1882.0
3.2666	447.624788829	1846.0
3.2768	448.083124816	1954.0
3.287	448.539275902	1918.0
3.2973	448.997692522	1972.0
3.3075	449.449483835	1915.0
3.3178	449.90351903	1891.0
3.328	450.35099224	1930.0
3.3382	450.796332332	1858.0
3.3485	451.243884264	1890.0
3.3587	451.684967912	1877.0
3.369	452.12824226	1829.0
3.3792	452.565110146	1813.0
3.3894	452.999895469	1870.0
3.3997	453.436840212	1840.0
3.4099	453.867469971	1771.0
3.4202	454.30023851	1768.0
3.4304	454.726752422	1773.0
3.4406	455.15123313	1732.0
3.4509	455.577822078	1676.0
3.4611	455.99824571	1697.0
3.4714	456.420757433	1687.0
3.4816	456.837162766	1719.0
3.4918	457.251583083	1655.0
3.5021	457.668061673	1611.0
3.5123	458.078521069	1620.0
3.5226	458.491019066	1524.0
3.5328	458.897555398	1570.0
3.543	459.302153759	1655.0
3.5533	459.708761612	1646.0
3.5635	460.109492929	1551.0
3.5738	460.51221453	1550.0
3.584	460.909115762	1553.0
3.5942	461.304124952	1557.0
3.6045	461.701096009	1523.0
3.6147	462.092329806	1400.0
3.625	462.485506717	1494.0
3.6352	462.873001204	1521.0
3.6454	463.258648492	1501.0
3.6557	463.646211149	1515.0
3.6659	464.028172522	1504.0
3.6762	464.412030957	1611.0
3.6864	464.790341643	1505.0
3.6966	465.16684891	1444.0
3.7069	465.545226152	1556.0
3.7171	465.918134861	1508.0
3.7274	466.292895672	1509.0
3.7376	466.662240218	1486.0
3.7478	467.029824087	1562.0
3.7581	467.39923361	1580.0
3.7683	467.763304209	1541.0
3.7786	468.129183013	1499.0
3.7888	468.489773921	1565.0
3.799	468.84864588	1574.0
3.8093	469.209300225	1529.0
3.8195	469.564742181	1543.0
3.8298	469.921949486	1478.0
3.84	470.273994221	1584.0
3.8502	470.624360747	1584.0
3.8605	470.976467415	1486.0
3.8707	471.32348523	1476.0
3.881	471.672226556	1538.0
3.8912	472.015927665	1608.0
3.9014	472.357990341	1497.0
3.9117	472.701751917	1555.0
3.9219	473.040545248	1545.0
3.9322	473.38102124	1428.0
3.9424	473.716576473	1482.0
3.9526	474.050532104	1587.0
3.9629	474.386146369	1484.0
3.9731	474.71691014	1522.0
3.9834	475.049316692	1551.0
3.9936	475.376919109	1464.0
4.0038	475.702959835	1489.0
4.0141	476.030619886	1495.0
4.0243	476.3535444	1522.0
4.0346	476.678072762	1465.0
4.0448	476.997910848	1463.0
4.055	477.316224256	1463.0
4.0653	477.636118611	1461.0
4.0755	477.951389663	1469.0
4.0858	478.268226551	1541.0
4.096	478.580484325	1402.0
4.1062	478.891253557	1444.0
4.1165	479.203566266	1527.0
4.1267	479.511365247	1404.0
4.137	479.820692952	1414.0
4.1472	480.125550071	1449.0
4.1574	480.428953927	1423.0
4.1677	480.733864678	1372.0
4.1779	481.034368679	1410.0
4.1882	481.336365174	1436.0
4.1984	481.633997037	1417.0
4.2086	481.930210079	1433.0
4.2189	482.227894303	1354.0
4.2291	482.521276219	1384.0
4.2394	482.816115255	1354.0
4.2496	483.106693104	1356.0
4.2598	483.395885758	1364.0
4.2701	483.686514727	1340.0
4.2803	483.972943354	1317.0
4.2906	484.260794568	1332.0
4.3008	484.544485585	1348.0
4.311	484.826824239	1284.0
4.3213	485.110565165	1352.0
4.3315	485.3902053	1328.0
4.3418	485.671234305	1341.0
4.352	485.948201713	1355.0
4.3622	486.223848809	1321.0
4.3725	486.500864943	1197.0
4.3827	486.773877476	1332.0
4.393	487.048245962	1261.0
4.4032	487.318649112	1255.0
4.4134	487.587763243	1278.0
4.4237	487.858213965	1274.0
4.4339	488.124755973	1243.0
4.4442	488.392621798	1260.0
4.4544	488.656616268	1315.0
4.4646	488.919352268	1267.0
4.4749	489.183393181	1284.0
4.4851	489.443618019	1235.0
4.4954	489.705135299	1193.0
4.5056	489.962872976	1244.0
4.5158	490.21938201	1233.0
4.5261	490.47716503	1238.0
4.5363	490.731222418	1275.0
4.5466	490.986541615	1189.0
4.5568	491.238170789	1212.0
4.567	491.488600439	1232.0
4.5773	491.740273881	1207.0
4.5875	491.98830999	1178.0
4.5978	492.237578004	1179.0
4.608	492.483243448	1148.0
4.6182	492.727737798	1280.0
4.6285	492.973446462	1227.0
4.6387	493.215604	1192.0
4.649	493.458964245	1172.0
4.6592	493.698807303	1233.0
4.6694	493.937507023	1206.0
4.6797	494.177392277	1226.0
4.6899	494.413810567	1188.0
4.7002	494.65140306	1199.0
4.7104	494.885561727	1163.0
4.7206	495.118604151	1252.0
4.7309	495.352804013	1242.0
4.7411	495.583619079	1173.0
4.7514	495.815580519	1180.0
4.7616	496.044189515	1234.0
4.7718	496.271708726	1231.0
4.7821	496.500357941	1206.0
4.7923	496.725702582	1177.0
4.8026	496.952166428	1265.0
4.8128	497.175357284	1217.0
4.823	497.397484183	1221.0
4.8333	497.620714304	1218.0
4.8435	497.840718172	1195.0
4.8538	498.061814719	1187.0
4.864	498.279715847	1228.0
4.8742	498.496578235	1247.0
4.8845	498.714517698	1215.0
4.8947	498.929307371	1192.0
4.905	499.145163827	1134.0
4.9152	499.357900597	1190.0
4.9254	499.569623244	1151.0
4.9357	499.78239744	1207.0
4.9459	499.992096498	1202.0
4.9562	500.202837054	1250.0
4.9664	500.410531863	1200.0
4.9766	500.617236585	1187.0
4.9869	500.824967933	1189.0
4.9971	501.029697025	1199.0
5.0074	501.235442932	1140.0
5.0176	501.438215277	1105.0
5.0278	501.640021	1170.0
5.0381	501.842829018	1092.0
5.0483	502.042705935	1180.0
5.0586	502.243575567	1097.0
5.0688	502.441542113	1060.0
5.079	502.638564946	1120.0
5.0893	502.836566319	1068.0
5.0995	503.03170606	1051.0
5.1098	503.227814988	1007.0
5.12	503.421089634	1041.0
5.1302	503.613442934	1021.0
5.1405	503.806751582	1026.0
5.1507	503.997266419	962.0
5.161	504.188727474	973.0
5.1712	504.377421421	1019.0
5.1814	504.565215857	1023.0
5.1917	504.753943	964.0
5.2019	504.939942547	1002.0
5.2122	505.126865885	912.0
5.2224	505.311087697	941.0
5.2326	505.494431318	884.0
5.2429	505.678685539	909.0
5.2531	505.86027681	849.0
5.2634	506.042769978	845.0
5.2736	506.222625646	824.0
5.2838	506.401623938	769.0
5.2941	506.581511248	821.0
5.3043	506.75879872	740.0
5.3146	506.936966715	802.0
5.3248	507.11255972	721.0
5.335	507.287315668	767.0
5.3453	507.462939565	747.0
5.3555	507.636025241	747.0
5.3658	507.809970571	722.0
5.376	507.98140194	714.0
5.3862	508.15201609	695.0
5.3965	508.323477619	657.0
5.4067	508.492461084	643.0
5.417	508.662283828	625.0
5.4272	508.829652193	588.0
5.4374	508.996222708	551.0
5.4477	509.163620518	584.0
5.4579	509.328598996	545.0
5.4682	509.494396862	586.0
5.4784	509.657798519	570.0
5.4886	509.820421235	468.0
5.4989	509.983851639	492.0
5.5091	510.144920049	481.0
5.5194	510.306788428	484.0
5.5296	510.466317389	487.0
5.5398	510.625085871	428.0
5.5501	510.784642898	452.0
5.5603	510.941893912	419.0
5.5706	511.099925934	424.0
5.5808	511.255673985	408.0
5.591	511.410679579	411.0
5.6013	511.56645503	338.0
5.6115	511.719979121	385.0
5.6218	511.874265711	346.0
5.632	512.02632246	305.0
5.6422	512.177654349	318.0
5.6525	512.329737849	301.0
5.6627	512.479623348	302.0
5.673	512.630253273	312.0
5.6832	512.778706206	251.0
5.6934	512.926451458	271.0
5.7037	513.074930508	267.0
5.7139	513.221263651	236.0
5.7242	513.368323576	248.0
5.7344	513.513258105	237.0
5.7446	513.657501726	251.0
5.7549	513.802461753	218.0
5.7651	513.945326731	196.0
5.7754	514.088901268	179.0
5.7856	514.230400781	204.0
5.7958	514.371225761	190.0
5.8061	514.512750167	159.0
5.8163	514.652229179	176.0
5.8266	514.792400932	172.0
5.8368	514.93054684	139.0
5.847	515.068034202	121.0
5.8573	515.206204414	127.0
5.8675	515.342377708	154.0
5.8778	515.479227325	141.0
5.888	515.61409911	126.0
5.8982	515.748327958	127.0
5.9085	515.883223471	111.0
5.9187	516.016169394	97.0
5.929	516.149775611	91.0
5.9392	516.281450872	99.0
5.9494	516.412498433	104.0
5.9597	516.54419686	84.0
5.9699	516.673991902	90.0
5.9802	516.80443159	77.0
5.9904	516.932986085	100.0
6.0006	517.060927758	66.0
6.0109	517.18950487	69.0
6.0211	517.31622371	64.0
6.0314	517.443571915	87.0
6.0416	517.569079609	63.0
6.0518	517.693989005	69.0
6.0621	517.819518779	70.0
6.0723	517.943234323	63.0
6.0826	518.067564316	73.0
6.0928	518.19009742	40.0
6.103	518.312046404	56.0
6.1133	518.434601064	59.0
6.1235	518.555384491	73.0
6.1338	518.676767806	56.0
6.144	518.796396817	43.0
6.1542	518.915455553	53.0
6.1645	519.035105611	41.0
6.1747	519.153026415	40.0
6.185	519.271532888	34.0
6.1952	519.388326636	35.0
6.2054	519.504563624	35.0
6.2157	519.621377919	35.0
6.2259	519.736503945	35.0
6.2362	519.852201759	36.0
6.2464	519.966227441	30.0
6.2566	520.079709558	28.0
6.2669	520.1937553	31.0
6.2771	520.306152785	29.0
6.2874	520.419108507	37.0
6.2976	520.530431727	23.0
6.3078	520.641224265	21.0
6.3181	520.752567069	22.0
6.3283	520.862300681	27.0
6.3386	520.9725793	26.0
6.3488	521.081264107	21.0
6.359	521.18943081	34.0
6.3693	521.298134738	25.0
6.3795	521.405267612	22.0
6.3898	521.512932576	24.0
6.4	521.619041503	22.0
6.4102	521.724644605	16.0
6.4205	521.830772198	21.0
6.4307	521.935365973	26.0
6.441	522.040479227	21.0
6.4512	522.144073323	17.0
6.4614	522.247173582	10.0
6.4717	522.350785902	19.0
6.4819	522.452900755	19.0
6.4922	522.555522776	16.0
6.5024	522.656661643	19.0
6.5126	522.757318377	15.0
6.5229	522.858475037	17.0
6.5331	522.958169721	14.0
6.5434	523.058359552	14.0
6.5536	523.15710138	12.0
6.5638	523.255372503	13.0
6.5741	523.354131703	15.0
6.5843	523.451463576	19.0
6.5946	523.549278861	22.0
6.6048	523.645680462	15.0
6.615	523.741622513	17.0
6.6253	523.838041074	12.0
6.6355	523.933066136	11.0
6.6458	524.028563153	11.0
6.656	524.122679991	14.0
6.6662	524.216348171	11.0
6.6765	524.310481566	11.0
6.6867	524.40325449	12.0
6.697	524.496488184	14.0
6.7072	524.588374408	11.0
6.7174	524.679822608	18.0
6.7277	524.771724998	10.0
6.7379	524.862299161	20.0
6.7482	524.953323172	11.0
6.7584	525.04303165	14.0
6.7686	525.132312485	10.0
6.7789	525.222036746	11.0
6.7891	525.310464258	12.0
6.7994	525.399330957	13.0
6.8096	525.486913303	6.0
6.8198	525.57407814	16.0
6.8301	525.661675894	13.0
6.8403	525.748007633	5.0
6.8506	525.83476815	9.0
6.8608	525.920274753	13.0
6.871	526.005373743	12.0
6.8813	526.090895389	7.0
6.8915	526.175181025	7.0
6.9018	526.259885277	12.0
6.912	526.343365334	5.0
6.9222	526.426447438	14.0
6.9325	526.509942181	11.0
6.9427	526.592230208	8.0
6.953	526.67492693	9.0
6.9632	526.75642847	7.0
6.9734	526.83754149	9.0
6.9837	526.919057368	6.0
6.9939	526.999395131	6.0
7.0042	527.080131902	10.0
7.0144	527.159701817	7.0
7.0246	527.23889242	11.0
7.0349	527.318476334	7.0
7.0451	527.396910054	5.0
7.0554	527.475733326	4.0
7.0656	527.553417397	7.0
7.0758	527.630731146	7.0
7.0861	527.708428884	8.0
7.0963	527.785003688	13.0
7.1066	527.861958811	7.0
7.1168	527.937801734	9.0
7.127	528.013283111	11.0
7.1373	528.089139376	6.0
7.1475	528.163899322	7.0
7.1578	528.239030572	8.0
7.168	528.313075982	13.0
7.1782	528.386768415	8.0
7.1885	528.460826851	2.0
7.1987	528.533814951	6.0
7.209	528.607165556	4.0
7.2192	528.679456055	3.0
7.2294	528.751401943	3.0
7.2397	528.82370516	9.0
7.2499	528.894963408	1.0
7.2602	528.966575569	5.0
7.2704	529.037152749	5.0
7.2806	529.107393486	7.0
7.2909	529.177983083	3.0
7.3011	529.247552477	3.0
7.3114	529.317467397	11.0
7.3216	529.386371865	11.0
7.3318	529.454947863	9.0
7.3421	529.523864453	5.0
7.3523	529.59178502	4.0
7.3626	529.660042924	5.0
7.3728	529.727314324	5.0
7.383	529.794265039	5.0
7.3933	529.861548274	10.0
7.4035	529.927859091	6.0
7.4138	529.994499251	4.0
7.424	530.060176287	7.0
7.4342	530.125540239	9.0
7.4445	530.19122883	7.0
7.4547	530.25596805	6.0
7.465	530.321028806	7.0
7.4752	530.385149266	6.0
7.4854	530.448964062	5.0
7.4957	530.513095802	3.0
7.5059	530.576300673	5.0
7.5162	530.639819459	7.0
7.5264	530.702420234	6.0
7.5366	530.764722589	4.0
7.5469	530.827334377	3.0
7.5571	530.889041263	5.0
7.5674	530.951054624	5.0
7.5776	531.012171731	7.0
7.5878	531.072997491	5.0
7.5981	531.134125351	5.0
7.6083	531.194369754	6.0
7.6186	531.25491337	5.0
7.6288	531.314581973	5.0
7.639	531.373966135	6.0
7.6493	531.433645235	4.0
7.6595	531.492461818	4.0
7.6698	531.551570522	6.0
7.68	531.609824951	5.0
7.6902	531.66780168	5.0
