TL-DOS Lehrstuhlversuch
detector=R1406904
job_number=2015-10-14-003
irradiation_dose [mSv]=1.0

[BEGIN DATA]
time [sec] 	 temperature [K] 	 photoncount 
0.0	122.683916891	0.0
0.0102	124.478925696	0.0
0.0205	126.283874252	2.0
0.0307	128.063747004	1.0
0.041	129.853475692	2.0
0.0512	131.618340023	3.0
0.0614	133.375783966	2.0
0.0717	135.142959647	0.0
0.0819	136.885584295	0.0
0.0922	138.637858619	1.0
0.1024	140.365788934	0.0
0.1126	142.086454149	1.0
0.1229	143.816647442	1.0
0.1331	145.522803493	1.0
0.1434	147.238407276	2.0
0.1536	148.930176507	0.0
0.1638	150.614832678	2.0
0.1741	152.308817529	1.0
0.1843	153.979268174	1.0
0.1946	155.658968836	0.0
0.2048	157.315333739	0.0
0.215	158.964734442	0.0
0.2253	160.623268599	1.0
0.2355	162.25876106	0.0
0.2458	163.903309959	1.0
0.256	165.525011456	0.0
0.2662	167.139894495	3.0
0.2765	168.763719849	0.0
0.2867	170.36498571	0.0
0.297	171.975118481	0.0
0.3072	173.562881987	0.0
0.3174	175.143969727	0.0
0.3277	176.733812643	0.0
0.3379	178.301568177	0.0
0.3482	179.87800506	0.0
0.3584	181.432540809	1.0
0.3686	182.980540498	0.0
0.3789	184.53711214	0.0
0.3891	186.072058631	0.0
0.3994	187.615504794	0.0
0.4096	189.137508155	0.0
0.4198	190.65311224	0.0
0.4301	192.177108889	0.0
0.4403	193.679932945	0.0
0.4506	195.191078797	0.0
0.4608	196.681230589	0.0
0.471	198.165117026	0.0
0.4813	199.657220391	1.0
0.4915	201.128594252	0.0
0.5018	202.608115754	0.0
0.512	204.067082548	0.0
0.5222	205.519915104	1.0
0.5325	206.980792629	0.0
0.5427	208.421374465	0.0
0.553	209.869933433	0.0
0.5632	211.29836785	1.0
0.5734	212.720796401	0.0
0.5837	214.151101563	0.0
0.5939	215.56153577	0.0
0.6042	216.979780169	0.0
0.6144	218.378321171	0.0
0.6246	219.770981996	0.0
0.6349	221.171354593	1.0
0.6451	222.552272083	0.0
0.6554	223.940836319	0.0
0.6656	225.310109498	0.0
0.6758	226.673625556	0.0
0.6861	228.044692	0.0
0.6963	229.396710481	0.0
0.7066	230.756215682	1.0
0.7168	232.096833537	0.0
0.727	233.431814753	0.0
0.7373	234.774188345	0.0
0.7475	236.097912599	0.0
0.7578	237.428966894	0.0
0.768	238.741529107	6.0
0.7782	240.048572641	0.0
0.7885	241.362853848	0.0
0.7987	242.658875998	0.0
0.809	243.962074791	0.0
0.8192	245.247168494	0.0
0.8294	246.526859009	0.0
0.8397	247.81363573	0.0
0.8499	249.082535511	0.0
0.8602	250.358461745	0.0
0.8704	251.616661781	0.0
0.8806	252.869571704	0.0
0.8909	254.129419539	2.0
0.9011	255.371764549	0.0
0.9114	256.620988968	1.0
0.9216	257.852858153	0.0
0.9318	259.079547932	1.0
0.9421	260.31303043	0.0
0.9523	261.529376394	0.0
0.9626	262.752457797	0.0
0.9728	263.958547166	0.0
0.983	265.159565521	1.0
0.9933	266.367234441	0.0
1.0035	267.558125449	0.0
1.0138	268.755610943	0.0
1.024	269.93646	0.0
1.0342	271.112344167	0.0
1.0445	272.29473972	0.0
1.0547	273.460708479	0.0
1.065	274.633133718	1.0
1.0752	275.789270678	0.0
1.0854	276.940546651	0.0
1.0957	278.098197742	0.0
1.1059	279.23976581	0.0
1.1162	280.38765524	0.0
1.1264	281.519597263	1.0
1.1366	282.646780026	0.0
1.1469	283.780204493	1.0
1.1571	284.897882512	0.0
1.1674	286.021749605	0.0
1.1776	287.130003027	0.0
1.1878	288.233596788	0.0
1.1981	289.343301632	1.0
1.2083	290.437589559	1.0
1.2186	291.537937039	0.0
1.2288	292.622997602	0.0
1.239	293.703496018	0.0
1.2493	294.789977628	0.0
1.2595	295.861364957	1.0
1.2698	296.938685027	0.0
1.28	298.001038097	0.0
1.2902	299.058924494	0.0
1.3005	300.122668871	0.0
1.3107	301.171634852	0.0
1.321	302.226409418	0.0
1.3312	303.266530203	0.0
1.3414	304.302277791	0.0
1.3517	305.343760767	0.0
1.3619	306.370774621	0.0
1.3722	307.4034755	1.0
1.3824	308.421829264	0.0
1.3926	309.435901351	0.0
1.4029	310.4555888	1.0
1.4131	311.461109926	1.0
1.4234	312.472199064	0.0
1.4336	313.469241335	0.0
1.4438	314.462091532	0.0
1.4541	315.460439577	0.0
1.4643	316.444917763	1.0
1.4746	317.434847437	0.0
1.4848	318.411024208	2.0
1.495	319.383096635	2.0
1.5053	320.360551853	0.0
1.5155	321.324427474	0.0
1.5258	322.293640496	1.0
1.536	323.249388429	0.0
1.5462	324.20111791	0.0
1.5565	325.158117534	2.0
1.5667	326.101821747	0.0
1.577	327.050751664	0.0
1.5872	327.986498279	2.0
1.5974	328.91831054	3.0
1.6077	329.855282653	3.0
1.6179	330.779237593	0.0
1.6282	331.708308876	3.0
1.6384	332.624472751	1.0
1.6486	333.536784606	6.0
1.6589	334.454148332	2.0
1.6691	335.3587673	1.0
1.6794	336.268395539	1.0
1.6896	337.165386488	4.0
1.6998	338.058606031	4.0
1.7101	338.956771722	1.0
1.7203	339.842459369	1.0
1.7306	340.733051457	3.0
1.7408	341.611270721	6.0
1.751	342.485797503	4.0
1.7613	343.365166924	2.0
1.7715	344.232319434	7.0
1.7818	345.104273748	4.0
1.792	345.964114168	9.0
1.8022	346.820339381	10.0
1.8125	347.681305889	4.0
1.8227	348.530311154	4.0
1.833	349.384017733	5.0
1.8432	350.225863931	3.0
1.8534	351.06417058	7.0
1.8637	351.907119299	10.0
1.8739	352.738357094	6.0
1.8842	353.574197817	13.0
1.8944	354.398426365	10.0
1.9046	355.219189437	13.0
1.9149	356.044497434	9.0
1.9251	356.858339585	10.0
1.9354	357.676688337	9.0
1.9456	358.483667927	16.0
1.9558	359.287254565	17.0
1.9661	360.095291013	17.0
1.9763	360.892101567	17.0
1.9866	361.693324409	17.0
1.9968	362.483416017	18.0
2.007	363.270185678	17.0
2.0173	364.061312027	20.0
2.0275	364.841447409	26.0
2.0378	365.625902743	18.0
2.048	366.39945979	25.0
2.0582	367.169764409	29.0
2.0685	367.944334543	21.0
2.0787	368.708143722	30.0
2.089	369.476182448	30.0
2.0992	370.233550959	21.0
2.1094	370.987735108	38.0
2.1197	371.746095505	49.0
2.1299	372.493920146	41.0
2.1402	373.245885821	49.0
2.1504	373.98740458	44.0
2.1606	374.725805618	45.0
2.1709	375.468295505	44.0
2.1811	376.200470123	60.0
2.1914	376.936699113	62.0
2.2016	377.662699815	60.0
2.2118	378.385648041	48.0
2.2221	379.112599548	68.0
2.2323	379.829451657	57.0
2.2426	380.55027329	60.0
2.2528	381.261080687	63.0
2.263	381.968899488	71.0
2.2733	382.680637792	59.0
2.2835	383.382488053	76.0
2.2938	384.088224766	89.0
2.304	384.784156814	90.0
2.3142	385.47716281	68.0
2.3245	386.174006283	99.0
2.3347	386.861168645	99.0
2.345	387.552136125	107.0
2.3552	388.233504127	95.0
2.3654	388.912007311	92.0
2.3757	389.594267665	126.0
2.3859	390.267049506	114.0
2.3962	390.943556836	117.0
2.4064	391.610665579	113.0
2.4166	392.274969457	119.0
2.4269	392.942951877	120.0
2.4371	393.601654146	144.0
2.4474	394.264003938	154.0
2.4576	394.917151832	132.0
2.4678	395.567553559	140.0
2.4781	396.221556846	145.0
2.4883	396.86647419	152.0
2.4986	397.514962725	132.0
2.5088	398.154441933	149.0
2.519	398.791232445	150.0
2.5293	399.431549146	165.0
2.5395	400.062970049	146.0
2.5498	400.697887407	137.0
2.56	401.323983979	157.0
2.5702	401.947448124	145.0
2.5805	402.574364662	160.0
2.5907	403.192571569	149.0
2.601	403.814201759	178.0
2.6112	404.42719576	161.0
2.6214	405.037612423	154.0
2.6317	405.65140923	175.0
2.6419	406.256678675	156.0
2.6522	406.865299763	161.0
2.6624	407.465465396	165.0
2.6726	408.063107626	164.0
2.6829	408.664059263	171.0
2.6931	409.256661995	144.0
2.7034	409.852546228	147.0
2.7136	410.440151956	155.0
2.7238	411.02528709	144.0
2.7341	411.613662374	126.0
2.7443	412.193863473	129.0
2.7546	412.777277399	120.0
2.7648	413.352586069	134.0
2.775	413.925475847	126.0
2.7853	414.501537968	127.0
2.7955	415.069596968	104.0
2.8058	415.64080156	105.0
2.816	416.204070516	112.0
2.8262	416.764971203	108.0
2.8365	417.328977843	99.0
2.8467	417.885148847	108.0
2.857	418.444399613	109.0
2.8672	418.995880816	91.0
2.8774	419.545043311	94.0
2.8877	420.09724676	95.0
2.8979	420.641778553	76.0
2.9082	421.189325656	96.0
2.9184	421.729265793	84.0
2.9286	422.266935747	83.0
2.9389	422.807583015	89.0
2.9491	423.340719174	91.0
2.9594	423.876807542	90.0
2.9696	424.405448137	102.0
2.9798	424.931866058	84.0
2.9901	425.461198986	89.0
3.0003	425.983177993	93.0
3.0106	426.508047427	83.0
3.0208	427.02562495	101.0
3.031	427.541026314	87.0
3.0413	428.059281682	95.0
3.0515	428.570337027	82.0
3.0618	429.084222309	87.0
3.072	429.590968283	93.0
3.0822	430.095583638	114.0
3.0925	430.602993269	118.0
3.1027	431.103353556	104.0
3.113	431.606484557	111.0
3.1232	432.102625656	86.0
3.1334	432.596680725	119.0
3.1437	433.093471594	127.0
3.1539	433.583360642	127.0
3.1642	434.075962421	131.0
3.1744	434.561720578	111.0
3.1846	435.045436361	141.0
3.1949	435.53183069	129.0
3.2051	436.011467635	126.0
3.2154	436.493760541	141.0
3.2256	436.969353044	120.0
3.2358	437.442945915	121.0
3.2461	437.919161276	155.0
3.2563	438.388760669	160.0
3.2666	438.86096044	147.0
3.2768	439.326600029	149.0
3.287	439.790281834	146.0
3.2973	440.256531247	154.0
3.3075	440.716303147	158.0
3.3178	441.178621005	165.0
3.328	441.634515971	147.0
3.3382	442.088494122	161.0
3.3485	442.544986148	165.0
3.3587	442.995136219	143.0
3.369	443.447778968	184.0
3.3792	443.894133239	138.0
3.3894	444.338610808	153.0
3.3997	444.785549645	157.0
3.4099	445.226279247	187.0
3.4202	445.669449361	126.0
3.4304	446.106462598	178.0
3.4406	446.541638409	183.0
3.4509	446.97922398	157.0
3.4611	447.410730258	165.0
3.4714	447.844625975	167.0
3.4816	448.272493663	174.0
3.4918	448.698562377	166.0
3.5021	449.12699042	157.0
3.5123	449.549466395	165.0
3.5226	449.974281804	172.0
3.5328	450.393195335	166.0
3.543	450.81034754	185.0
3.5533	451.229809699	154.0
3.5635	451.643444352	172.0
3.5738	452.05936948	147.0
3.584	452.469516241	171.0
3.5942	452.877938536	157.0
3.6045	453.288622444	165.0
3.6147	453.6936008	177.0
3.625	454.100821698	154.0
3.6352	454.502385155	163.0
3.6454	454.902260234	137.0
3.6557	455.304349597	164.0
3.6659	455.70085281	135.0
3.6762	456.099551635	145.0
3.6864	456.492711414	152.0
3.6966	456.884218148	142.0
3.7069	457.277892828	118.0
3.7171	457.66609826	152.0
3.7274	458.056453356	124.0
3.7376	458.441385324	148.0
3.7478	458.824698842	135.0
3.7581	459.210134935	134.0
3.7683	459.590216238	137.0
3.7786	459.972402218	148.0
3.7888	460.349278562	139.0
3.799	460.724570325	120.0
3.8093	461.101940244	150.0
3.8195	461.474067435	124.0
3.8298	461.848255257	133.0
3.84	462.21724456	133.0
3.8502	462.584682444	145.0
3.8605	462.954154992	129.0
3.8707	463.318494529	146.0
3.881	463.684851575	158.0
3.8912	464.046118892	138.0
3.9014	464.405867257	111.0
3.9117	464.767607707	144.0
3.9219	465.124322566	159.0
3.9322	465.483012711	112.0
3.9424	465.836719644	124.0
3.9526	466.188939412	131.0
3.9629	466.543109576	123.0
3.9731	466.892359321	130.0
3.9834	467.243543016	129.0
3.9936	467.589847783	118.0
4.0038	467.934696508	139.0
4.0141	468.281454812	144.0
4.0243	468.62339567	125.0
4.0346	468.967230004	132.0
4.0448	469.306287513	133.0
4.055	469.643919452	124.0
4.0653	469.983421008	136.0
4.0755	470.318205933	117.0
4.0858	470.654844709	136.0
4.096	470.986806628	154.0
4.1062	471.317372809	125.0
4.1165	471.64976948	115.0
4.1267	471.977548229	136.0
4.137	472.307142031	132.0
4.1472	472.632156851	144.0
4.1574	472.955805143	141.0
4.1677	473.281245617	148.0
4.1779	473.602164809	131.0
4.1882	473.924861071	129.0
4.1984	474.243074177	164.0
4.2086	474.559949352	146.0
4.2189	474.878579204	145.0
4.2291	475.192782393	117.0
4.2394	475.508725463	127.0
4.2496	475.820279196	108.0
4.2598	476.130522999	119.0
4.2701	476.442484757	126.0
4.2803	476.750112491	130.0
4.2906	477.059443694	137.0
4.3008	477.364477419	129.0
4.311	477.668228626	118.0
4.3213	477.973661837	121.0
4.3315	478.274851724	123.0
4.3418	478.57770943	115.0
4.352	478.876359593	123.0
4.3622	479.173754078	136.0
4.3725	479.472795367	133.0
4.3827	479.767682133	121.0
4.393	480.064201816	100.0
4.4032	480.356602008	125.0
4.4134	480.6477728	117.0
4.4237	480.940555934	111.0
4.4339	481.229271487	121.0
4.4442	481.519585785	133.0
4.4544	481.805866802	106.0
4.4646	482.090944148	130.0
4.4749	482.377600092	95.0
4.4851	482.66027358	111.0
4.4954	482.944512355	118.0
4.5056	483.224802256	107.0
4.5158	483.503913675	117.0
4.5261	483.784570656	113.0
4.5363	484.061328524	101.0
4.5466	484.339618922	125.0
4.5568	484.614043084	120.0
4.567	484.887313428	115.0
4.5773	485.162096989	115.0
4.5875	485.433063035	115.0
4.5978	485.705529539	116.0
4.608	485.974210718	118.0
4.6182	486.241762225	145.0
4.6285	486.510795281	110.0
4.6387	486.776090713	115.0
4.649	487.042855202	116.0
4.6592	487.305913583	117.0
4.6694	487.567865933	116.0
4.6797	487.831268828	127.0
4.6899	488.091012317	106.0
4.7002	488.35219412	102.0
4.7104	488.609747374	112.0
4.7206	488.866217743	107.0
4.7309	489.124108301	111.0
4.7411	489.378416035	94.0
4.7514	489.634131982	93.0
4.7616	489.886295317	105.0
4.7718	490.137398429	95.0
4.7821	490.389892009	103.0
4.7923	490.638877744	116.0
4.8026	490.889242222	103.0
4.8128	491.136128434	121.0
4.823	491.381976612	108.0
4.8333	491.629186158	141.0
4.8435	491.87296127	98.0
4.8538	492.118086271	111.0
4.864	492.359805798	102.0
4.8742	492.600509012	91.0
4.8845	492.842545106	96.0
4.8947	493.08121864	105.0
4.905	493.321213813	85.0
4.9152	493.557874779	110.0
4.9254	493.793540702	107.0
4.9357	494.03051161	126.0
4.9459	494.264190327	108.0
4.9562	494.499163026	97.0
4.9664	494.730871294	100.0
4.9766	494.961605343	110.0
4.9869	495.193617067	101.0
4.9971	495.422405497	118.0
5.0074	495.652460829	113.0
5.0176	495.879320046	100.0
5.0278	496.105225432	99.0
5.0381	496.332381754	111.0
5.0483	496.556382238	109.0
5.0586	496.78162311	114.0
5.0688	497.003734755	97.0
5.079	497.224912528	92.0
5.0893	497.447315061	119.0
5.0995	497.666627797	102.0
5.1098	497.887154964	116.0
5.12	498.10461839	105.0
5.1302	498.321167489	91.0
5.1405	498.538915715	99.0
5.1507	498.753638806	106.0
5.161	498.969550914	115.0
5.1712	499.182463396	97.0
5.1814	499.394480686	113.0
5.1917	499.607672008	104.0
5.2019	499.817901505	106.0
5.2122	500.029295134	100.0
5.2224	500.237751912	75.0
5.2326	500.445332232	99.0
5.2429	500.654062015	86.0
5.2531	500.859891955	113.0
5.2634	501.066861665	89.0
5.2736	501.270955986	90.0
5.2838	501.47419219	134.0
5.2941	501.678553802	99.0
5.3043	501.880076257	106.0
5.3146	502.08271463	89.0
5.3248	502.282537788	88.0
5.335	502.481520787	102.0
5.3453	502.681605642	103.0
5.3555	502.878910757	112.0
5.3658	503.077308436	109.0
5.376	503.272949815	93.0
5.3862	503.467768618	102.0
5.3965	503.663666218	100.0
5.4067	503.856842251	81.0
5.417	504.051087983	87.0
5.4272	504.242635097	97.0
5.4374	504.43337685	101.0
5.4477	504.625174823	112.0
5.4579	504.814308183	89.0
5.4682	505.004488858	91.0
5.4784	505.19202739	81.0
5.4886	505.378777414	82.0
5.4989	505.566561555	78.0
5.5091	505.751736847	65.0
5.5194	505.937937535	88.0
5.5296	506.121551373	73.0
5.5398	506.304393205	96.0
5.5501	506.488247513	91.0
5.5603	506.669547568	65.0
5.5706	506.85185156	86.0
5.5808	507.031622839	59.0
5.591	507.210638267	73.0
5.6013	507.390644983	73.0
5.6115	507.568150899	82.0
5.6218	507.746639744	81.0
5.632	507.922648877	62.0
5.6422	508.097917979	61.0
5.6525	508.274157622	66.0
5.6627	508.447948802	62.0
5.673	508.62270234	60.0
5.6832	508.79502806	67.0
5.6934	508.966629236	66.0
5.7037	509.139180642	55.0
5.7139	509.309334825	54.0
5.7242	509.480431226	71.0
5.7344	509.649150618	47.0
5.7446	509.817160627	47.0
5.7549	509.986100981	51.0
5.7651	510.15269428	42.0
5.7754	510.320210079	55.0
5.7856	510.485398613	50.0
5.7958	510.64989261	53.0
5.8061	510.815297483	39.0
5.8163	510.978404417	54.0
5.8266	511.142414546	37.0
5.8368	511.304146114	41.0
5.847	511.46519768	45.0
5.8573	511.627141059	40.0
5.8675	511.78683459	34.0
5.8778	511.947412414	45.0
5.888	512.105759361	44.0
5.8982	512.263440537	32.0
5.9085	512.421994863	39.0
5.9187	512.578346424	43.0
5.929	512.735563772	39.0
5.9392	512.89059693	30.0
5.9494	513.044978249	36.0
5.9597	513.200214445	40.0
5.9699	513.353293975	22.0
5.9802	513.507221173	31.0
5.9904	513.65900989	28.0
6.0006	513.810160411	32.0
6.0109	513.962147917	35.0
6.0211	514.112023891	24.0
6.0314	514.262729794	25.0
6.0416	514.411341968	17.0
6.0518	514.559329301	22.0
6.0621	514.708136105	26.0
6.0723	514.854875565	27.0
6.0826	515.002427585	30.0
6.0928	515.147929693	19.0
6.103	515.292820037	23.0
6.1133	515.438512702	16.0
6.1235	515.582181286	16.0
6.1338	515.726645427	17.0
6.144	515.869102555	17.0
6.1542	516.010960721	18.0
6.1645	516.153604417	14.0
6.1747	516.294266392	22.0
6.185	516.435707275	13.0
6.1952	516.575183146	17.0
6.2054	516.714072589	13.0
6.2157	516.853731125	12.0
6.2259	516.991449411	8.0
6.2362	517.129930303	14.0
6.2464	517.266487307	14.0
6.2566	517.402470156	14.0
6.2669	517.539206002	11.0
6.2771	517.674042203	9.0
6.2874	517.809625051	16.0
6.2976	517.943324272	14.0
6.3078	518.076461354	8.0
6.3181	518.210335675	9.0
6.3283	518.342350105	11.0
6.3386	518.475095556	9.0
6.3488	518.605996801	6.0
6.359	518.736347671	15.0
6.3693	518.86742035	8.0
6.3795	518.996672062	8.0
6.3898	519.126639497	7.0
6.4	519.254801319	9.0
6.4102	519.382424284	7.0
6.4205	519.510753953	7.0
6.4307	519.637300763	10.0
6.441	519.764548318	7.0
6.4512	519.890028047	2.0
6.4614	520.014980195	7.0
6.4717	520.140624259	6.0
6.4819	520.264522773	5.0
6.4922	520.389107368	2.0
6.5024	520.511961133	12.0
6.5126	520.634298358	4.0
6.5229	520.757313018	4.0
6.5331	520.878618659	1.0
6.5434	521.000596023	6.0
6.5536	521.120878778	5.0
6.5638	521.240655804	5.0
6.5741	521.361096087	7.0
6.5843	521.479863117	4.0
6.5946	521.599287811	4.0
6.6048	521.717053362	3.0
6.615	521.834323766	6.0
6.6253	521.952243548	1.0
6.6355	522.068525093	5.0
6.6458	522.185450539	3.0
6.656	522.300751563	2.0
6.6662	522.415567803	5.0
6.6765	522.531019831	1.0
6.6867	522.644867906	4.0
6.697	522.759346407	3.0
6.7072	522.872234481	2.0
6.7174	522.984647915	3.0
6.7277	523.097683833	1.0
6.7379	523.209149364	2.0
6.7482	523.321232128	0.0
6.7584	523.431757748	3.0
6.7686	523.541818662	2.0
6.7789	523.652489032	2.0
6.7891	523.761621879	2.0
6.7994	523.871359043	2.0
6.8096	523.97957165	6.0
6.8198	524.087329276	4.0
6.8301	524.195683603	1.0
6.8403	524.302532584	2.0
6.8506	524.409973234	0.0
6.8608	524.515921233	3.0
6.871	524.621423772	0.0
6.8813	524.727510525	3.0
6.8915	524.832123435	3.0
6.9018	524.937315632	1.0
6.912	525.041046415	3.0
6.9222	525.14434106	3.0
6.9325	525.248207693	0.0
6.9427	525.350631327	2.0
6.953	525.453622126	1.0
6.9632	525.555182093	1.0
6.9734	525.656315051	1.0
6.9837	525.758008026	0.0
6.9939	525.8582882	3.0
7.0042	525.959123669	2.0
7.0144	526.05855825	0.0
7.0246	526.157574758	1.0
7.0349	526.257139564	2.0
7.0451	526.355321135	3.0
7.0554	526.45404638	0.0
7.0656	526.551400055	2.0
7.0758	526.648344405	2.0
7.0861	526.745825578	2.0
7.0963	526.841952465	2.0
7.1066	526.938611647	1.0
7.1168	527.033927963	3.0
7.127	527.12884352	3.0
7.1373	527.224284666	2.0
7.1475	527.318399867	0.0
7.1578	527.413036225	2.0
7.168	527.506357818	1.0
7.1782	527.59928704	1.0
7.1885	527.692730851	2.0
7.1987	527.784876466	1.0
7.209	527.877532331	1.0
7.2192	527.968900946	3.0
7.2294	528.059885401	1.0
7.2397	528.151373676	0.0
7.2499	528.241590923	0.0
7.2602	528.332307742	2.0
7.2704	528.42176425	1.0
7.2806	528.510844637	3.0
7.2909	528.600418301	0.0
7.3011	528.688747536	0.0
7.3114	528.777565888	1.0
7.3216	528.865150304	2.0
7.3318	528.95236647	2.0
7.3421	529.040065591	0.0
7.3523	529.126546324	2.0
7.3626	529.213505939	2.0
7.3728	529.299257441	0.0
7.383	529.384648401	2.0
7.3933	529.470512207	0.0
7.4035	529.555183124	1.0
7.4138	529.640322901	0.0
7.424	529.724279847	1.0
7.4342	529.807883795	2.0
7.4445	529.891950696	1.0
7.4547	529.974849671	2.0
7.465	530.058207693	1.0
7.4752	530.140407639	2.0
7.4854	530.222261975	1.0
7.4957	530.304569574	1.0
7.5059	530.385733689	2.0
7.5162	530.467347245	4.0
7.5264	530.54782696	0.0
7.5366	530.627968298	3.0
7.5469	530.708553413	1.0
7.5571	530.788018974	1.0
7.5674	530.867924571	3.0
7.5776	530.946720056	1.0
7.5878	531.025184243	2.0
7.5981	531.104082922	1.0
7.6083	531.181885476	2.0
7.6186	531.260118857	1.0
7.6288	531.337265356	1.0
7.639	531.414087493	1.0
7.6493	531.491335027	1.0
7.6595	531.567509376	2.0
7.6698	531.644105536	0.0
7.68	531.719637561	0.0
7.6902	531.79485201	0.0
7.7005	531.870482954	2.0
7.7107	531.945063173	1.0
7.721	532.020056374	0.0
7.7312	532.09400771	1.0
7.7414	532.167648116	0.0
7.7517	532.241696302	0.0
7.7619	532.314715751	0.0
7.7722	532.38813954	4.0
7.7824	532.460543266	1.0
7.7926	532.532642571	1.0
7.8029	532.605141121	0.0
7.8131	532.676632462	0.0
7.8234	532.748519683	2.0
7.8336	532.819408188	1.0
7.8438	532.889998641	0.0
7.8541	532.960979985	1.0
7.8643	533.030975199	3.0
7.8746	533.101358007	2.0
7.8848	533.170763	1.0
7.895	533.239876179	1.0
7.9053	533.309372069	0.0
7.9155	533.377902465	0.0
