TL-DOS Lehrstuhlversuch
detector=R1407604
job_number=2015-11-02-007
irradiation_dose [mSv]=0.3

[BEGIN DATA]
time [sec] 	 temperature [K] 	 photoncount 
0.0	4.29179331473	0.0
0.0102	7.43732177178	1.0
0.0205	10.5948980465	1.0
0.0307	13.7033198828	3.0
0.041	16.8236474131	3.0
0.0512	19.8954003615	1.0
0.0614	22.9490697817	1.0
0.0717	26.0144351866	0.0
0.0819	29.0320816126	1.0
0.0922	32.0612860502	0.0
0.1024	35.0433344319	0.0
0.1126	38.0078273797	3.0
0.1229	40.9836747536	0.0
0.1331	43.9131966887	1.0
0.1434	46.853939106	1.0
0.1536	49.7489025683	1.0
0.1638	52.626823269	1.0
0.1741	55.5157668119	4.0
0.1843	58.3597377603	2.0
0.1946	61.2146015185	0.0
0.2048	64.025023207	2.0
0.215	66.8188998346	1.0
0.2253	69.6234774037	0.0
0.2355	72.3843957154	1.0
0.2458	75.1558887336	1.0
0.256	77.8842375263	0.0
0.2662	80.5965244244	0.0
0.2765	83.3191997638	0.0
0.2867	85.9994908294	1.0
0.297	88.6900477879	0.0
0.3072	91.338720464	2.0
0.3174	93.9718003017	2.0
0.3277	96.6149652067	2.0
0.3379	99.2169835881	0.0
0.3482	101.828968067	0.0
0.3584	104.400291412	1.0
0.3686	106.956477278	0.0
0.3789	109.522453696	0.0
0.3891	112.048485194	3.0
0.3994	114.58419175	1.0
0.4096	117.080424601	2.0
0.4198	119.561962033	2.0
0.4301	122.053004104	2.0
0.4403	124.505267769	2.0
0.4506	126.966923949	2.0
0.4608	129.390259178	0.0
0.471	131.799328139	1.0
0.4813	134.217624174	0.0
0.4915	136.598274251	1.0
0.5018	138.988042553	1.0
0.512	141.340608993	0.0
0.5222	143.679325784	1.0
0.5325	146.027000189	0.0
0.5427	148.338128014	4.0
0.553	150.658107784	1.0
0.5632	152.9419721	1.0
0.5734	155.212391218	0.0
0.5837	157.491506361	3.0
0.5939	159.735142196	1.0
0.6042	161.987371472	3.0
0.6144	164.204539975	1.0
0.6246	166.408655921	4.0
0.6349	168.621213943	2.0
0.6451	170.799328759	2.0
0.6554	172.985786062	1.0
0.6656	175.138206474	1.0
0.6758	177.277955504	1.0
0.6861	179.425900075	1.0
0.6963	181.540407287	0.0
0.7066	183.66301336	0.0
0.7168	185.752576522	0.0
0.727	187.829838346	3.0
0.7373	189.915056376	0.0
0.7475	191.96781352	3.0
0.7578	194.028433014	1.0
0.768	196.056974551	1.0
0.7782	198.073573986	0.0
0.7885	200.097897281	0.0
0.7987	202.090707648	0.0
0.809	204.091150759	1.0
0.8192	206.060452689	1.0
0.8294	208.018161262	3.0
0.8397	209.983368135	1.0
0.8499	211.917982353	1.0
0.8602	213.860006417	2.0
0.8704	215.771798717	2.0
0.8806	217.672336221	2.0
0.8909	219.580153052	2.0
0.9011	221.458270627	0.0
0.9114	223.343581658	1.0
0.9216	225.199543784	3.0
0.9318	227.044579789	3.0
0.9421	228.896682542	2.0
0.9523	230.719953349	0.0
0.9626	232.55020754	3.0
0.9728	234.351969904	4.0
0.983	236.143125223	3.0
0.9933	237.94114092	3.0
1.0035	239.711166652	4.0
1.0138	241.487971831	2.0
1.024	243.237117232	3.0
1.0342	244.975965346	1.0
1.0445	246.721473494	3.0
1.0547	248.439809068	0.0
1.065	250.16472611	1.0
1.0752	251.862791124	1.0
1.0854	253.550859563	3.0
1.0957	255.245393542	0.0
1.1059	256.913548471	2.0
1.1162	258.588092668	2.0
1.1264	260.236568997	2.0
1.1366	261.875340683	1.0
1.1469	263.520389095	3.0
1.1571	265.139828805	2.0
1.1674	266.765471198	3.0
1.1776	268.365806984	1.0
1.1878	269.956721532	4.0
1.1981	271.553729507	2.0
1.2083	273.125876633	0.0
1.2186	274.704045303	3.0
1.2288	276.257646397	1.0
1.239	277.802101382	4.0
1.2493	279.352471847	0.0
1.2595	280.878707475	4.0
1.2698	282.410788801	3.0
1.28	283.919019999	1.0
1.2902	285.418372182	2.0
1.3005	286.923467095	1.0
1.3107	288.405131982	1.0
1.321	289.892471854	5.0
1.3312	291.356658095	1.0
1.3414	292.812224615	2.0
1.3517	294.273366161	3.0
1.3619	295.711761908	3.0
1.3722	297.155666914	0.0
1.3824	298.577094446	1.0
1.3926	299.990153978	5.0
1.4029	301.408625729	4.0
1.4131	302.805015927	2.0
1.4234	304.206754498	1.0
1.4336	305.586672005	2.0
1.4438	306.958465884	8.0
1.4541	308.335513927	5.0
1.4643	309.691125268	4.0
1.4746	311.051928791	2.0
1.4848	312.391548493	2.0
1.495	313.723281802	3.0
1.5053	315.060115837	6.0
1.5155	316.376139187	3.0
1.5258	317.697203092	9.0
1.536	318.997701807	4.0
1.5462	320.290544436	3.0
1.5565	321.588338835	4.0
1.5667	322.865930284	4.0
1.577	324.148415089	4.0
1.5872	325.41093527	5.0
1.5974	326.666022947	5.0
1.6077	327.925917786	3.0
1.6179	329.166199663	8.0
1.6282	330.411231995	5.0
1.6384	331.636882732	6.0
1.6486	332.855318015	10.0
1.6589	334.078420078	6.0
1.6691	335.282481936	2.0
1.6794	336.491155522	6.0
1.6896	337.681013514	2.0
1.6998	338.863866766	5.0
1.7101	340.051250514	11.0
1.7203	341.220150089	7.0
1.7306	342.393526715	2.0
1.7408	343.54863722	8.0
1.751	344.696947545	12.0
1.7613	345.849656061	11.0
1.7715	346.984420199	12.0
1.7818	348.123530644	4.0
1.792	349.244908395	10.0
1.8022	350.359684552	12.0
1.8125	351.478730459	15.0
1.8227	352.580356019	7.0
1.833	353.68620096	13.0
1.8432	354.774831057	15.0
1.8534	355.857052345	10.0
1.8637	356.943418694	11.0
1.8739	358.012873424	15.0
1.8842	359.086424316	21.0
1.8944	360.143263089	18.0
1.9046	361.193880211	16.0
1.9149	362.248521345	14.0
1.9251	363.286744731	9.0
1.9354	364.328944658	18.0
1.9456	365.354920512	14.0
1.9558	366.374856405	19.0
1.9661	367.398698798	21.0
1.9763	368.40660289	19.0
1.9866	369.418367397	20.0
1.9968	370.414381622	15.0
2.007	371.404532273	31.0
2.0173	372.398475341	21.0
2.0275	373.376945555	21.0
2.0378	374.359163449	32.0
2.048	375.326091017	28.0
2.0582	376.287326246	26.0
2.0685	377.25224314	27.0
2.0787	378.202139037	34.0
2.089	379.155673169	27.0
2.0992	380.094363499	24.0
2.1094	381.027527723	37.0
2.1197	381.964266098	36.0
2.1299	382.886422133	45.0
2.1402	383.812110156	53.0
2.1504	384.723387863	47.0
2.1606	385.629300842	35.0
2.1709	386.538683595	42.0
2.1811	387.433909858	43.0
2.1914	388.332564964	43.0
2.2016	389.217230579	51.0
2.2118	390.096688132	48.0
2.2221	390.979514132	54.0
2.2323	391.848597055	46.0
2.2426	392.721008687	48.0
2.2528	393.579839364	59.0
2.263	394.433614071	53.0
2.2733	395.290658856	53.0
2.2835	396.134361903	63.0
2.2938	396.981296452	60.0
2.304	397.81504665	66.0
2.3142	398.643888529	47.0
2.3245	399.475904988	62.0
2.3347	400.29496933	60.0
2.345	401.117170803	61.0
2.3552	401.92657295	60.0
2.3654	402.731210114	57.0
2.3757	403.538929153	44.0
2.3859	404.334074314	68.0
2.3962	405.132264994	52.0
2.4064	405.918030126	68.0
2.4166	406.699169428	71.0
2.4269	407.483300604	60.0
2.4371	408.255225098	61.0
2.4474	409.030106173	58.0
2.4576	409.792924563	56.0
2.4678	410.551252212	59.0
2.4781	411.312484363	47.0
2.4883	412.061866305	41.0
2.4986	412.814118486	37.0
2.5088	413.554660249	56.0
2.519	414.290842415	39.0
2.5293	415.029844263	43.0
2.5395	415.757341964	44.0
2.5498	416.487626083	39.0
2.56	417.206541766	50.0
2.5702	417.921225165	42.0
2.5805	418.638645902	47.0
2.5907	419.344898448	39.0
2.601	420.053856041	42.0
2.6112	420.75177719	34.0
2.6214	421.445589651	38.0
2.6317	422.142059512	41.0
2.6419	422.827687327	33.0
2.6522	423.515941193	43.0
2.6624	424.193480914	35.0
2.6726	424.867031932	51.0
2.6829	425.543162746	38.0
2.6931	426.208768135	28.0
2.7034	426.876922886	44.0
2.7136	427.534676378	33.0
2.7238	428.18855765	32.0
2.7341	428.844943379	38.0
2.7443	429.491111058	41.0
2.7546	430.13975365	45.0
2.7648	430.778298731	49.0
2.775	431.413084673	39.0
2.7853	432.050301934	60.0
2.7955	432.677599544	48.0
2.8058	433.307299792	43.0
2.816	433.927197407	48.0
2.8262	434.54344566	59.0
2.8365	435.162054231	53.0
2.8467	435.771032835	57.0
2.857	436.382343913	48.0
2.8672	436.984138624	59.0
2.8774	437.582390547	70.0
2.8877	438.182933859	57.0
2.8979	438.774128428	60.0
2.9082	439.367587355	61.0
2.9184	439.951807823	66.0
2.9286	440.532588963	61.0
2.9389	441.115594576	69.0
2.9491	441.689524458	73.0
2.9594	442.265652572	70.0
2.9696	442.832812019	72.0
2.9798	443.396632575	71.0
2.9901	443.962612644	74.0
3.0003	444.519782021	67.0
3.0106	445.079085435	59.0
3.0208	445.629682093	83.0
3.031	446.177037368	72.0
3.0413	446.726489091	71.0
3.0515	447.26738742	58.0
3.0618	447.810357466	63.0
3.072	448.344875021	67.0
3.0822	448.87624585	71.0
3.0925	449.409651904	80.0
3.1027	449.934754351	71.0
3.113	450.461868014	76.0
3.1232	450.980776023	61.0
3.1334	451.496629201	64.0
3.1437	452.01445817	74.0
3.1539	452.524226021	61.0
3.1642	453.035946356	80.0
3.1744	453.539700667	58.0
3.1846	454.040489357	73.0
3.1949	454.543196138	76.0
3.2051	455.038077212	74.0
3.2154	455.534853749	68.0
3.2256	456.023896896	60.0
3.2358	456.510061027	59.0
3.2461	456.998087235	63.0
3.2563	457.47851627	62.0
3.2666	457.960785416	61.0
3.2768	458.435547009	58.0
3.287	458.907513663	58.0
3.2973	459.381288016	48.0
3.3075	459.847687055	63.0
3.3178	460.315872469	75.0
3.328	460.776769575	63.0
3.3382	461.234953361	62.0
3.3485	461.694892055	55.0
3.3587	462.147670819	65.0
3.369	462.602183789	50.0
3.3792	463.049621291	67.0
3.3894	463.494424711	58.0
3.3997	463.940931792	50.0
3.4099	464.380488033	56.0
3.4202	464.821727836	51.0
3.4304	465.256098797	64.0
3.4406	465.687912599	56.0
3.4509	466.121380309	55.0
3.4611	466.548100165	54.0
3.4714	466.976454419	60.0
3.4816	467.398140421	53.0
3.4918	467.817343941	60.0
3.5021	468.23815307	58.0
3.5123	468.652411404	60.0
3.5226	469.068256405	61.0
3.5328	469.477627888	49.0
3.543	469.884589386	56.0
3.5533	470.293109603	59.0
3.5635	470.695270328	62.0
3.5738	471.098971386	58.0
3.584	471.496387971	53.0
3.5942	471.89146495	58.0
3.6045	472.28805513	63.0
3.6147	472.678471533	45.0
3.625	473.070383287	47.0
3.6352	473.456194095	60.0
3.6454	473.83973362	53.0
3.6557	474.224742155	47.0
3.6659	474.603757207	63.0
3.6762	474.984223941	56.0
3.6864	475.358767895	49.0
3.6966	475.731106894	55.0
3.7069	476.104872004	71.0
3.7171	476.47281866	57.0
3.7274	476.842174603	53.0
3.7376	477.20578073	61.0
3.7478	477.567246293	37.0
3.7581	477.930096321	56.0
3.7683	478.28729781	49.0
3.7786	478.645867432	54.0
3.7888	478.998855149	48.0
3.799	479.349764814	61.0
3.8093	479.702018513	61.0
3.8195	480.048788628	38.0
3.8298	480.396886922	50.0
3.84	480.73956632	46.0
3.8502	481.080228351	60.0
3.8605	481.422195166	46.0
3.8707	481.758838535	52.0
3.881	482.096771296	46.0
3.8912	482.429443409	50.0
3.9014	482.760157069	49.0
3.9117	483.092137408	48.0
3.9219	483.418949763	45.0
3.9322	483.747013855	45.0
3.9424	484.069970926	43.0
3.9526	484.391026737	52.0
3.9629	484.713312237	56.0
3.9731	485.030580673	62.0
3.9834	485.349064291	43.0
3.9936	485.66259003	46.0
4.0038	485.974270031	46.0
4.0141	486.28714381	57.0
4.0243	486.595147038	51.0
4.0346	486.904329963	49.0
4.0448	487.208699792	45.0
4.055	487.511277785	57.0
4.0653	487.815014695	47.0
4.0755	488.114023288	26.0
4.0858	488.414177127	48.0
4.096	488.709658428	40.0
4.1062	489.00340022	46.0
4.1165	489.298267084	39.0
4.1267	489.588543713	32.0
4.137	489.879932143	47.0
4.1472	490.166784488	36.0
4.1574	490.451948122	43.0
4.1677	490.738203974	36.0
4.1779	491.020003639	41.0
4.1882	491.302882637	58.0
4.1984	491.581358018	44.0
4.2086	491.858194003	41.0
4.2189	492.136090309	43.0
4.2291	492.409660564	43.0
4.2394	492.684278631	42.0
4.2496	492.95462168	45.0
4.2598	493.223373209	41.0
4.2701	493.493154094	44.0
4.2803	493.758735262	46.0
4.2906	494.025333643	49.0
4.3008	494.28778185	47.0
4.311	494.548685013	53.0
4.3213	494.810587473	53.0
4.3315	495.06841286	38.0
4.3418	495.327225754	36.0
4.352	495.582009671	40.0
4.3622	495.835293666	37.0
4.3725	496.089547774	42.0
4.3827	496.339843872	46.0
4.393	496.591098639	35.0
4.4032	496.838442088	42.0
4.4134	497.084329416	38.0
4.4237	497.331158528	38.0
4.4339	497.574145216	50.0
4.4442	497.818062577	39.0
4.4544	498.058182841	51.0
4.4646	498.296889509	33.0
4.4749	498.536510456	36.0
4.4851	498.772401191	36.0
4.4954	499.00919542	46.0
4.5056	499.24230344	40.0
4.5158	499.474039144	60.0
4.5261	499.706662428	46.0
4.5363	499.935664432	51.0
4.5466	500.165543547	40.0
4.5568	500.391844101	38.0
4.567	500.616812414	44.0
4.5773	500.842642388	48.0
4.5875	501.064956835	49.0
4.5978	501.288122777	42.0
4.608	501.507814664	37.0
4.6182	501.726213216	39.0
4.6285	501.945448265	33.0
4.6387	502.161270451	35.0
4.649	502.377919266	32.0
4.6592	502.591195478	40.0
4.6694	502.803216126	20.0
4.6797	503.016048842	32.0
4.6899	503.225568361	32.0
4.7002	503.435890369	38.0
4.7104	503.642938265	36.0
4.7206	503.848767262	26.0
4.7309	504.055384612	30.0
4.7411	504.258785522	31.0
4.7514	504.462965485	28.0
4.7616	504.66396695	31.0
4.7718	504.863785112	27.0
4.7821	505.064368605	36.0
4.7923	505.261829586	27.0
4.8026	505.460046871	27.0
4.8128	505.65517848	29.0
4.823	505.849161341	45.0
4.8333	506.043887183	25.0
4.8435	506.235581701	44.0
4.8538	506.428010436	40.0
4.864	506.617443606	30.0
4.8742	506.805761575	29.0
4.8845	506.994800828	33.0
4.8947	507.180897281	23.0
4.905	507.367706509	26.0
4.9152	507.551607651	23.0
4.9254	507.73442616	20.0
4.9357	507.91794489	20.0
4.9459	508.098606758	30.0
4.9562	508.279960587	24.0
4.9664	508.458491254	26.0
4.9766	508.635970904	20.0
4.9869	508.814130327	30.0
4.9971	508.989516317	21.0
5.0074	509.165574059	25.0
5.0176	509.338891086	15.0
5.0278	509.511187789	20.0
5.0381	509.684144412	14.0
5.0483	509.854408595	12.0
5.0586	510.025324914	18.0
5.0688	510.193580555	18.0
5.079	510.360845667	13.0
5.0893	510.528751429	13.0
5.0995	510.694043378	13.0
5.1098	510.859968419	12.0
5.12	511.02331048	11.0
5.1302	511.185690941	12.0
5.1405	511.348693342	15.0
5.1507	511.509158261	16.0
5.161	511.670237784	15.0
5.1712	511.828809759	11.0
5.1814	511.986448214	11.0
5.1917	512.144690447	13.0
5.2019	512.300469301	10.0
5.2122	512.456844809	11.0
5.2224	512.610785998	11.0
5.2326	512.763820929	8.0
5.2429	512.917442006	10.0
5.2531	513.068671641	13.0
5.2634	513.220480507	6.0
5.2736	513.369926143	6.0
5.2838	513.518491987	8.0
5.2941	513.667626859	9.0
5.3043	513.814440127	10.0
5.3146	513.961815711	6.0
5.3248	514.106897078	9.0
5.335	514.251124345	5.0
5.3453	514.395904024	4.0
5.3555	514.538429896	1.0
5.3658	514.681501663	8.0
5.376	514.822346211	9.0
5.3862	514.962361602	4.0
5.3965	515.102913271	6.0
5.4067	515.241276953	11.0
5.417	515.380170587	8.0
5.4272	515.516902044	5.0
5.4374	515.652828558	2.0
5.4477	515.789275689	4.0
5.4579	515.923598729	4.0
5.4682	516.058436245	4.0
5.4784	516.191174726	2.0
5.4886	516.323131771	2.0
5.4989	516.455594229	5.0
5.5091	516.585994626	3.0
5.5194	516.716894474	7.0
5.5296	516.845756586	2.0
5.5398	516.973860082	4.0
5.5501	517.102454233	4.0
5.5603	517.22904654	4.0
5.5706	517.356123713	3.0
5.5808	517.481222658	2.0
5.591	517.60558514	2.0
5.6013	517.730423949	0.0
5.6115	517.853319374	3.0
5.6218	517.976685505	4.0
5.632	518.098131179	0.0
5.6422	518.218861897	2.0
5.6525	518.340055031	4.0
5.6627	518.459361534	3.0
5.673	518.579124998	2.0
5.6832	518.697024088	2.0
5.6934	518.8142291	5.0
5.7037	518.931883025	2.0
5.7139	519.047705414	5.0
5.7242	519.163971419	1.0
5.7344	519.278427494	2.0
5.7446	519.392209763	0.0
5.7549	519.506427833	1.0
5.7651	519.618867855	2.0
5.7754	519.731738537	2.0
5.7856	519.842852146	2.0
5.7958	519.953311625	2.0
5.8061	520.064194179	0.0
5.8163	520.173350608	2.0
5.8266	520.282925122	3.0
5.8368	520.390793874	2.0
5.847	520.498027599	2.0
5.8573	520.605672044	0.0
5.8675	520.711640772	1.0
5.8778	520.818015376	3.0
5.888	520.922734031	3.0
5.8982	521.026836203	0.0
5.9085	521.131337101	0.0
5.9187	521.234211219	1.0
5.929	521.33747936	2.0
5.9392	521.43913991	0.0
5.9494	521.540201981	4.0
5.9597	521.641651134	0.0
5.9699	521.741521014	2.0
5.9802	521.841773409	1.0
5.9904	521.940465161	3.0
6.0006	522.038575911	2.0
6.0109	522.137062439	0.0
6.0211	522.234015813	0.0
6.0314	522.331340532	0.0
6.0416	522.427150183	0.0
6.0518	522.5223958	0.0
6.0621	522.61800622	0.0
6.0723	522.71212826	0.0
6.0826	522.8066108	2.0
6.0928	522.899622517	1.0
6.103	522.992086671	4.0
6.1133	523.084904975	1.0
6.1235	523.176278363	2.0
6.1338	523.268001725	2.0
6.144	523.358297216	2.0
6.1542	523.448061134	1.0
6.1645	523.53816886	2.0
6.1747	523.626873866	2.0
6.185	523.715918626	3.0
6.1952	523.803577212	0.0
6.2054	523.89071975	3.0
6.2157	523.978196055	3.0
6.2259	524.064310605	1.0
6.2362	524.150754985	1.0
6.2464	524.235853673	2.0
6.2566	524.320451382	2.0
6.2669	524.405373113	1.0
6.2771	524.488972854	0.0
6.2874	524.572892795	0.0
6.2976	524.655506342	2.0
6.3078	524.737633539	0.0
6.3181	524.820075296	2.0
6.3283	524.90123367	1.0
6.3386	524.982702891	0.0
6.3488	525.06290387	4.0
6.359	525.142632703	0.0
6.3693	525.222666908	1.0
6.3795	525.30145521	1.0
6.3898	525.380545282	1.0
6.4	525.458404147	1.0
6.4102	525.535804654	0.0
6.4205	525.613501617	2.0
6.4307	525.689989059	0.0
6.441	525.766769459	1.0
6.4512	525.842354608	1.0
6.4614	525.917494784	1.0
6.4717	525.992922758	0.0
6.4819	526.067176533	1.0
6.4922	526.141714711	0.0
6.5024	526.215092543	3.0
6.5126	526.288038397	0.0
6.5229	526.361263643	0.0
6.5331	526.433348982	1.0
6.5434	526.505710417	3.0
6.5536	526.576945392	1.0
6.5638	526.647761004	0.0
6.5741	526.718847849	1.0
6.5843	526.788828076	0.0
6.5946	526.859076337	1.0
6.6048	526.928231033	1.0
6.615	526.996978612	0.0
6.6253	527.065989505	0.0
6.6355	527.133926095	1.0
6.6458	527.202122892	0.0
6.656	527.26925806	1.0
6.6662	527.335998001	0.0
6.6765	527.402993564	0.0
6.6867	527.468946199	1.0
6.697	527.535151441	2.0
6.7072	527.600326057	3.0
6.7174	527.665116987	2.0
6.7277	527.730156076	3.0
6.7379	527.794182692	0.0
6.7482	527.858454539	3.0
6.7584	527.921725857	1.0
6.7686	527.984624694	2.0
6.7789	528.047764443	1.0
6.7891	528.109921286	0.0
6.7994	528.172316199	0.0
6.8096	528.233739801	0.0
6.8198	528.294801801	0.0
6.8301	528.356097676	0.0
6.8403	528.416439349	2.0
6.8506	528.47701214	0.0
6.8608	528.536641986	1.0
6.871	528.595920788	1.0
6.8813	528.655426637	0.0
6.8915	528.714006149	0.0
6.9018	528.77281003	0.0
6.912	528.830698501	0.0
6.9222	528.888246182	2.0
6.9325	528.946014278	2.0
6.9427	529.00288309	1.0
6.953	529.059969717	0.0
6.9632	529.116167669	2.0
6.9734	529.172034781	0.0
6.9837	529.228115872	2.0
6.9939	529.283323941	0.0
7.0042	529.338743465	1.0
7.0144	529.393300265	2.0
7.0246	529.447535887	1.0
7.0349	529.501979239	1.0
7.0451	529.555575064	1.0
7.0554	529.609376168	1.0
7.0656	529.662339743	1.0
7.0758	529.714991519	1.0
7.0861	529.767844959	0.0
7.0963	529.819875622	4.0
7.1066	529.872105569	0.0
7.1168	529.923522446	1.0
7.127	529.97463663	1.0
7.1373	530.025946588	0.0
7.1475	530.076457796	1.0
7.1578	530.12716247	3.0
7.168	530.177077817	2.0
7.1782	530.22669931	0.0
7.1885	530.276510861	1.0
7.1987	530.325546988	0.0
7.209	530.374770931	1.0
7.2192	530.423228597	0.0
7.2294	530.471400991	2.0
7.2397	530.519757892	1.0
7.2499	530.567362015	5.0
7.2602	530.615148468	0.0
7.2704	530.662191022	0.0
7.2806	530.708956635	4.0
7.2909	530.755901367	1.0
7.3011	530.802115304	1.0
7.3114	530.848506247	0.0
7.3216	530.894175015	2.0
7.3318	530.939574929	2.0
7.3421	530.985148732	0.0
7.3523	531.030013081	0.0
7.3626	531.075049266	0.0
7.3728	531.119384367	2.0
7.383	531.163458465	0.0
7.3933	531.207701373	0.0
7.4035	531.251255546	1.0
7.4138	531.294976537	0.0
7.424	531.338016918	2.0
7.4342	531.380803918	3.0
7.4445	531.423754798	0.0
7.4547	531.466037056	1.0
7.465	531.508481261	2.0
7.4752	531.55026473	0.0
7.4854	531.591802219	0.0
7.4957	531.633498803	0.0
7.5059	531.674546289	1.0
7.5162	531.715750994	2.0
7.5264	531.756314259	3.0
7.5366	531.796638726	2.0
7.5469	531.837117642	0.0
7.5571	531.876966417	0.0
7.5674	531.916967818	0.0
7.5776	531.956346512	0.0
7.5878	531.995493382	1.0
7.5981	532.03479019	1.0
7.6083	532.073475258	1.0
7.6186	532.112308497	0.0
7.6288	532.150537212	0.0
7.639	532.188540874	1.0
7.6493	532.226690095	0.0
7.6595	532.264245442	1.0
7.6698	532.301944631	1.0
7.68	532.339056951	3.0
7.6902	532.37595079	0.0
7.7005	532.412985937	3.0
7.7107	532.449444553	0.0
7.721	532.486042811	1.0
7.7312	532.522071338	1.0
7.7414	532.557887764	2.0
7.7517	532.593841372	2.0
7.7619	532.629235285	1.0
7.7722	532.664764761	0.0
7.7824	532.699741146	2.0
7.7926	532.734511623	2.0
7.8029	532.769415275	0.0
7.8131	532.803775578	0.0
7.8234	532.838267485	1.0
7.8336	532.872222452	2.0
7.8438	532.905977525	1.0
7.8541	532.939861885	1.0
7.8643	532.973218762	0.0
7.8746	533.0067034	2.0
7.8848	533.039666778	0.0
7.895	533.0724361	1.0
7.9053	533.105330933	2.0
7.9155	533.137713687	1.0
7.9258	533.170220472	0.0
7.936	533.202221219	4.0
7.9462	533.234033576	1.0
7.9565	533.265967779	0.0
7.9667	533.297404858	0.0
7.977	533.328962345	0.0
7.9872	533.360028573	0.0
7.9974	533.390911912	2.0
8.0077	533.421913539	2.0
8.0179	533.452432559	1.0
8.0282	533.483068472	1.0
8.0384	533.51322747	0.0
8.0486	533.543208922	0.0
