TL-DOS Lehrstuhlversuch
detector=R1408203
job_number=2015-10-22-007
irradiation_dose [mSv]=5.0

[BEGIN DATA]
time [sec] 	 temperature [K] 	 photoncount 
0.0	87.2696073218	0.0
0.0102	89.6920138472	0.0
0.0205	92.1250135846	1.0
0.0307	94.5214337752	2.0
0.041	96.9283335392	1.0
0.0512	99.299046163	1.0
0.0614	101.657070635	3.0
0.0717	104.025406775	2.0
0.0819	106.35813557	1.0
0.0922	108.701065415	2.0
0.1024	111.008769892	2.0
0.1126	113.304123438	0.0
0.1229	115.609514593	3.0
0.1331	117.880244764	3.0
0.1434	120.160904865	0.0
0.1536	122.407275808	0.0
0.1638	124.64162408	1.0
0.1741	126.885743184	0.0
0.1843	129.096122514	0.0
0.1946	131.316167859	1.0
0.2048	133.502835373	3.0
0.215	135.677799752	2.0
0.2253	137.862275276	1.0
0.2355	140.013907753	1.0
0.2458	142.174949344	0.0
0.256	144.303500211	0.0
0.2662	146.420658986	1.0
0.2765	148.547076122	2.0
0.2867	150.641523103	0.0
0.297	152.745129126	0.0
0.3072	154.817107954	1.0
0.3174	156.877997467	0.0
0.3277	158.947899273	0.0
0.3379	160.986680619	0.0
0.3482	163.03437758	0.0
0.3584	165.051287926	0.0
0.3686	167.057403684	0.0
0.3789	169.07229221	1.0
0.3891	171.056887388	0.0
0.3994	173.050161223	0.0
0.4096	175.013466681	0.0
0.4198	176.966264447	0.0
0.4301	178.927601821	0.0
0.4403	180.859450974	0.0
0.4506	182.799748126	0.0
0.4608	184.710873393	0.0
0.471	186.611770238	0.0
0.4813	188.520979727	0.0
0.4915	190.401484725	0.0
0.5018	192.290213194	0.0
0.512	194.150545099	0.0
0.5222	196.000920431	0.0
0.5325	197.859387476	0.0
0.5427	199.689912931	0.0
0.553	201.528443295	0.0
0.5632	203.339331811	0.0
0.5734	205.140528377	0.0
0.5837	206.949601597	0.0
0.5939	208.73147585	0.0
0.6042	210.52114226	0.0
0.6144	212.28390148	0.0
0.6246	214.03722634	0.0
0.6349	215.79821851	1.0
0.6451	217.5327346	1.0
0.6554	219.274835749	0.0
0.6656	220.99074484	0.0
0.6758	222.697470314	0.0
0.6861	224.411659319	0.0
0.6963	226.100075918	0.0
0.7066	227.795875983	0.0
0.7168	229.466180114	0.0
0.727	231.127544709	0.0
0.7373	232.796174471	0.0
0.7475	234.439716799	0.0
0.7578	236.090446356	0.0
0.768	237.716357604	0.0
0.7782	239.333566909	0.0
0.7885	240.957848288	0.0
0.7987	242.557709	0.0
0.809	244.164565922	0.0
0.8192	245.747264149	0.0
0.8294	247.32149171	1.0
0.8397	248.902603386	0.0
0.8499	250.459943441	0.0
0.8602	252.024093762	0.0
0.8704	253.564727471	0.0
0.8806	255.097115646	1.0
0.8909	256.636204971	0.0
0.9011	258.152154471	0.0
0.9114	259.674733235	1.0
0.9216	261.174420406	3.0
0.9318	262.66608119	0.0
0.9421	264.164265023	0.0
0.9523	265.639924035	2.0
0.9626	267.12203612	1.0
0.9728	268.581865018	1.0
0.983	270.033880852	2.0
0.9933	271.492246368	0.0
1.0035	272.928685721	1.0
1.0138	274.371406639	1.0
1.024	275.792436607	0.0
1.0342	277.205861164	2.0
1.0445	278.625466643	2.0
1.0547	280.023728706	2.0
1.065	281.428105386	1.0
1.0752	282.81136761	0.0
1.0854	284.187226559	4.0
1.0957	285.569102154	1.0
1.1059	286.930201593	0.0
1.1162	288.297253136	3.0
1.1264	289.643751398	0.0
1.1366	290.983043146	4.0
1.1469	292.328191633	1.0
1.1571	293.653116146	2.0
1.1674	294.983834569	4.0
1.1776	296.294545971	5.0
1.1878	297.598242392	2.0
1.1981	298.907639893	1.0
1.2083	300.197350927	2.0
1.2186	301.492701882	2.0
1.2288	302.768577558	2.0
1.239	304.037624694	7.0
1.2493	305.312221389	6.0
1.2595	306.567654838	8.0
1.2698	307.828578313	5.0
1.28	309.070544116	4.0
1.2902	310.305862867	5.0
1.3005	311.546583681	5.0
1.3107	312.768650566	5.0
1.321	313.996061564	7.0
1.3312	315.205018742	6.0
1.3414	316.407505532	6.0
1.3517	317.61525081	9.0
1.3619	318.804837938	14.0
1.3722	319.999627144	16.0
1.3824	321.176452992	11.0
1.3926	322.346980418	21.0
1.4029	323.522626575	18.0
1.4131	324.680597184	16.0
1.4234	325.843631612	16.0
1.4336	326.989180106	13.0
1.4438	328.128597577	12.0
1.4541	329.272997734	14.0
1.4643	330.400192119	32.0
1.4746	331.532315738	18.0
1.4848	332.64741816	25.0
1.495	333.756552507	25.0
1.5053	334.870537112	24.0
1.5155	335.967773235	18.0
1.5258	337.069807584	37.0
1.536	338.155273121	42.0
1.5462	339.234929201	30.0
1.5565	340.31930663	37.0
1.5667	341.387380713	42.0
1.577	342.460125497	47.0
1.5872	343.516741829	51.0
1.5974	344.567703108	59.0
1.6077	345.623260252	61.0
1.6179	346.662947356	58.0
1.6282	347.707181025	74.0
1.6384	348.735714899	66.0
1.6486	349.758744018	75.0
1.6589	350.786246855	78.0
1.6691	351.798301442	74.0
1.6794	352.814781756	82.0
1.6896	353.81597954	99.0
1.6998	354.811818873	85.0
1.7101	355.812013023	103.0
1.7203	356.797169502	104.0
1.7306	357.786634081	110.0
1.7408	358.761222307	139.0
1.751	359.730594496	124.0
1.7613	360.704205761	128.0
1.7715	361.663179022	174.0
1.7818	362.626345885	168.0
1.792	363.575031773	165.0
1.8022	364.518640255	167.0
1.8125	365.466375148	215.0
1.8227	366.399861082	189.0
1.833	367.337429161	231.0
1.8432	368.260901137	233.0
1.8534	369.179430652	236.0
1.8637	370.101976908	281.0
1.8739	371.01065291	280.0
1.8842	371.923302563	297.0
1.8944	372.822230755	309.0
1.9046	373.716347846	337.0
1.9149	374.614374922	371.0
1.9251	375.498900383	363.0
1.9354	376.387293885	403.0
1.9456	377.262330611	451.0
1.9558	378.132684104	468.0
1.9661	379.006843663	484.0
1.9763	379.867860451	482.0
1.9866	380.732642475	529.0
1.9968	381.584422716	532.0
2.007	382.431644193	539.0
2.0173	383.282570581	603.0
2.0275	384.120703501	654.0
2.0378	384.962501586	635.0
2.048	385.791643447	674.0
2.0582	386.616347705	734.0
2.0685	387.444658405	709.0
2.0787	388.26051566	790.0
2.089	389.079940668	846.0
2.0992	389.887045824	889.0
2.1094	390.68983132	843.0
2.1197	391.496127406	902.0
2.1299	392.290301031	886.0
2.1402	393.087947587	970.0
2.1504	393.873601724	950.0
2.1606	394.655051009	1006.0
2.1709	395.43991758	1063.0
2.1811	396.212983877	1025.0
2.1914	396.989430802	1101.0
2.2016	397.75420404	1100.0
2.2118	398.514884181	1150.0
2.2221	399.278890784	1076.0
2.2323	400.031410738	1134.0
2.2426	400.78722147	1209.0
2.2528	401.531668776	1151.0
2.263	402.272131769	1206.0
2.2733	403.015832816	1086.0
2.2835	403.748352502	1168.0
2.2938	404.484075505	1161.0
2.304	405.208737095	1150.0
2.3142	405.929520266	1209.0
2.3245	406.653455431	1107.0
2.3347	407.366506411	1140.0
2.345	408.08267557	1109.0
2.3552	408.788077304	1063.0
2.3654	409.489703699	1005.0
2.3757	410.194398315	1052.0
2.3859	410.888498022	1042.0
2.3962	411.585633035	975.0
2.4064	412.272286796	965.0
2.4166	412.955265557	892.0
2.4269	413.641230993	876.0
2.4371	414.316883109	844.0
2.4474	414.99548986	793.0
2.4576	415.663893927	795.0
2.4678	416.328720667	771.0
2.4781	416.996454702	723.0
2.4883	417.654149523	719.0
2.4986	418.31472045	695.0
2.5088	418.965359857	636.0
2.519	419.612517015	667.0
2.5293	420.2625042	692.0
2.5395	420.902718988	687.0
2.5498	421.545733443	575.0
2.56	422.179080335	627.0
2.5702	422.809037529	566.0
2.5805	423.441749533	618.0
2.5907	424.064948869	614.0
2.601	424.690873463	635.0
2.6112	425.307387436	566.0
2.6214	425.920601801	602.0
2.6317	426.536497759	638.0
2.6419	427.143133875	590.0
2.6522	427.752422817	638.0
2.6624	428.352551252	653.0
2.6726	428.949467774	696.0
2.6829	429.548994619	696.0
2.6931	430.139507727	719.0
2.7034	430.732603156	662.0
2.7136	431.316781542	694.0
2.7238	431.897833382	772.0
2.7341	432.481426168	760.0
2.7443	433.056244781	704.0
2.7546	433.633577083	781.0
2.7648	434.202229337	774.0
2.775	434.76783814	823.0
2.7853	435.335920358	834.0
2.7955	435.8954616	836.0
2.8058	436.457449723	880.0
2.816	437.010988494	883.0
2.8262	437.561564703	888.0
2.8365	438.114548588	978.0
2.8467	438.659218497	948.0
2.857	439.206270254	891.0
2.8672	439.745097224	1037.0
2.8774	440.28104037	995.0
2.8877	440.819327201	969.0
2.8979	441.349521024	1030.0
2.9082	441.88203339	1027.0
2.9184	442.406539565	1081.0
2.9286	442.928238562	1050.0
2.9389	443.452218954	1096.0
2.9491	443.968321431	1146.0
2.9594	444.486680831	1115.0
2.9696	444.997246825	1156.0
2.9798	445.505080249	1104.0
2.9901	446.015134435	1149.0
3.0003	446.517520083	1136.0
3.0106	447.022102669	1149.0
3.0208	447.519098981	1119.0
3.031	448.013435348	1104.0
3.0413	448.509933454	1138.0
3.0515	448.998966834	1149.0
3.0618	449.490138763	1173.0
3.072	449.973926044	1084.0
3.0822	450.455124076	1084.0
3.0925	450.938426392	1104.0
3.1027	451.414462377	1070.0
3.113	451.892580074	1106.0
3.1232	452.36350939	1145.0
3.1334	452.831918273	1154.0
3.1437	453.302375513	1106.0
3.1539	453.765759545	1130.0
3.1642	454.231169962	1052.0
3.1744	454.689583048	1080.0
3.1846	455.145542688	1012.0
3.1949	455.603496245	1041.0
3.2051	456.054564585	1036.0
3.2154	456.507605451	1076.0
3.2256	456.95383496	975.0
3.2358	457.397676231	985.0
3.2461	457.843458425	958.0
3.2563	458.282538394	926.0
3.2666	458.723538465	977.0
3.2768	459.157908209	941.0
3.287	459.589953189	993.0
3.2973	460.023887506	952.0
3.3075	460.451297729	979.0
3.3178	460.880577021	953.0
3.328	461.303402206	900.0
3.3382	461.723964413	991.0
3.3485	462.146365744	964.0
3.3587	462.562416375	935.0
3.369	462.980286401	952.0
3.3792	463.391873855	940.0
3.3894	463.801258475	939.0
3.3997	464.21243334	864.0
3.4099	464.617426292	875.0
3.4202	465.024190283	939.0
3.4304	465.424838679	912.0
3.4406	465.823342788	915.0
3.4509	466.22358956	907.0
3.4611	466.617818721	945.0
3.4714	467.013771851	888.0
3.4816	467.403771924	895.0
3.4918	467.7916847	881.0
3.5021	468.181293824	917.0
3.5123	468.565045271	916.0
3.5226	468.950474868	907.0
3.5328	469.330109626	904.0
3.543	469.707712564	829.0
3.5533	470.086966763	958.0
3.5635	470.46051897	855.0
3.5738	470.835704725	951.0
3.584	471.205249655	916.0
3.5942	471.572816766	906.0
3.6045	471.941991252	903.0
3.6147	472.305615291	908.0
3.625	472.670829462	887.0
3.6352	473.030552729	882.0
3.6454	473.388350742	910.0
3.6557	473.747713411	878.0
3.6659	474.10167315	990.0
3.6762	474.45718076	855.0
3.6864	474.807343401	855.0
3.6966	475.155631957	870.0
3.7069	475.505443583	946.0
3.7171	475.849995878	882.0
3.7274	476.196054904	914.0
3.7376	476.536911019	827.0
3.7478	476.875942858	932.0
3.7581	477.216457287	848.0
3.7683	477.551852166	892.0
3.7786	477.888713731	891.0
3.7888	478.220510666	928.0
3.799	478.55053181	903.0
3.8093	478.88199614	836.0
3.8195	479.208476986	855.0
3.8298	479.536385537	877.0
3.84	479.859364065	869.0
3.8502	480.180613997	836.0
3.8605	480.50326876	854.0
3.8707	480.821072488	804.0
3.881	481.140265976	807.0
3.8912	481.454660469	838.0
3.9014	481.76737231	800.0
3.9117	482.081451643	830.0
3.9219	482.390808871	849.0
3.9322	482.701518922	840.0
3.9424	483.007557525	814.0
3.9526	483.311958196	780.0
3.9629	483.617690016	798.0
3.9731	483.918825233	774.0
3.9834	484.221277318	785.0
3.9936	484.519182111	793.0
4.0038	484.815492505	774.0
4.0141	485.113098668	832.0
4.0243	485.406230396	719.0
4.0346	485.700643993	764.0
4.0448	485.990631154	750.0
4.055	486.279066293	737.0
4.0653	486.568762761	725.0
4.0755	486.854103715	735.0
4.0858	487.140692468	760.0
4.096	487.422972431	797.0
4.1062	487.703741619	764.0
4.1165	487.985738615	745.0
4.1267	488.263495855	699.0
4.137	488.542467732	763.0
4.1472	488.817245335	771.0
4.1574	489.090552317	696.0
4.1677	489.365054474	779.0
4.1779	489.63542956	737.0
4.1882	489.906986998	730.0
4.1984	490.174461638	696.0
4.2086	490.440504743	727.0
4.2189	490.707711257	680.0
4.2291	490.970900388	807.0
4.2394	491.235240447	733.0
4.2496	491.49560622	721.0
4.2598	491.754578504	724.0
4.2701	492.014683277	732.0
4.2803	492.27087744	711.0
4.2906	492.528191942	712.0
4.3008	492.781637785	718.0
4.311	493.033727175	785.0
4.3213	493.286918955	694.0
4.3315	493.53630406	762.0
4.3418	493.786779728	779.0
4.352	494.033489557	735.0
4.3622	494.278878985	734.0
4.3725	494.525341504	725.0
4.3827	494.76809852	719.0
4.393	495.011917115	753.0
4.4032	495.252069958	723.0
4.4134	495.490937493	742.0
4.4237	495.730849599	723.0
4.4339	495.967154686	754.0
4.4442	496.204493137	722.0
4.4544	496.438263264	721.0
4.4646	496.670782244	779.0
4.4749	496.904318032	734.0
4.4851	497.134342667	765.0
4.4954	497.365373203	698.0
4.5056	497.592930252	705.0
4.5158	497.819269406	757.0
4.5261	498.046598344	732.0
4.5363	498.270509448	735.0
4.5466	498.495399717	758.0
4.5568	498.716908818	688.0
4.567	498.937232392	766.0
4.5773	499.158519444	683.0
4.5875	499.376479501	724.0
4.5978	499.595392699	713.0
4.608	499.811014591	715.0
4.6182	500.025482466	722.0
4.6285	500.240888212	675.0
4.6387	500.453055386	700.0
4.649	500.666150369	714.0
4.6592	500.876041523	661.0
4.6694	501.08480933	689.0
4.6797	501.294490081	673.0
4.6899	501.501018334	656.0
4.7002	501.708449738	708.0
4.7104	501.912762461	677.0
4.7206	502.115981695	657.0
4.7309	502.320089609	709.0
4.7411	502.521128811	638.0
4.7514	502.72304716	665.0
4.7616	502.921929717	634.0
4.7718	503.119747846	621.0
4.7821	503.318431036	625.0
4.7923	503.514127073	620.0
4.8026	503.710678892	647.0
4.8128	503.904275603	585.0
4.823	504.096836176	610.0
4.8333	504.290238819	591.0
4.8435	504.480733701	554.0
4.8538	504.672061619	569.0
4.864	504.86051297	572.0
4.8742	505.047955722	549.0
4.8845	505.236218162	531.0
4.8947	505.421650124	538.0
4.905	505.607892982	558.0
4.9152	505.791335724	513.0
4.9254	505.973796674	445.0
4.9357	506.157055527	504.0
4.9459	506.337559129	437.0
4.9562	506.518852076	466.0
4.9664	506.697419328	460.0
4.9766	506.87503088	443.0
4.9869	507.05341913	444.0
4.9971	507.229125357	423.0
5.0074	507.40559995	416.0
5.0176	507.57942129	441.0
5.0278	507.752312332	412.0
5.0381	507.925959428	406.0
5.0483	508.096995784	376.0
5.0586	508.268780083	383.0
5.0688	508.437981648	364.0
5.079	508.606277639	363.0
5.0893	508.775309591	378.0
5.0995	508.941800189	315.0
5.1098	509.109018852	311.0
5.12	509.273723425	311.0
5.1302	509.437546492	284.0
5.1405	509.602085958	329.0
5.1507	509.764151615	310.0
5.161	509.926925987	269.0
5.1712	510.087253087	240.0
5.1814	510.246722109	235.0
5.1917	510.406888491	233.0
5.2019	510.564646812	235.0
5.2122	510.723095011	195.0
5.2224	510.879160982	218.0
5.2326	511.03439168	202.0
5.2429	511.190301204	215.0
5.2531	511.343866668	193.0
5.2634	511.498103675	205.0
5.2736	511.650021766	209.0
5.2838	511.801126786	181.0
5.2941	511.95289259	181.0
5.3043	512.102376633	160.0
5.3146	512.252514371	162.0
5.3248	512.400394825	166.0
5.335	512.547483818	152.0
5.3453	512.695216032	139.0
5.3555	512.840727129	119.0
5.3658	512.986874547	116.0
5.376	513.130824676	139.0
5.3862	513.274004378	126.0
5.3965	513.417810206	115.0
5.4067	513.559453949	118.0
5.417	513.701717102	96.0
5.4272	513.841841363	104.0
5.4374	513.981215674	74.0
5.4477	514.12119947	95.0
5.4579	514.259078645	86.0
5.4682	514.397560767	79.0
5.4784	514.533960845	71.0
5.4886	514.669630904	85.0
5.4989	514.805894249	82.0
5.5091	514.940108909	71.0
5.5194	515.074910491	71.0
5.5296	515.207685365	50.0
5.5398	515.339749623	61.0
5.5501	515.472391398	56.0
5.5603	515.603038938	48.0
5.5706	515.734257801	43.0
5.5808	515.863503821	53.0
5.591	515.992058111	50.0
5.6013	516.12117457	55.0
5.6115	516.248349796	43.0
5.6218	516.37608116	52.0
5.632	516.501892114	47.0
5.6422	516.627029724	38.0
5.6525	516.752714561	54.0
5.6627	516.876509759	32.0
5.673	517.000846314	28.0
5.6832	517.1233135	35.0
5.6934	517.245125236	29.0
5.7037	517.367469657	21.0
5.7139	517.487974659	31.0
5.7242	517.609006632	27.0
5.7344	517.728218918	17.0
5.7446	517.846793176	24.0
5.7549	517.96588596	16.0
5.7651	518.083188214	24.0
5.7754	518.201003432	28.0
5.7856	518.317047328	25.0
5.7958	518.432470151	22.0
5.8061	518.54839772	23.0
5.8163	518.662582347	15.0
5.8266	518.777266305	20.0
5.8368	518.890226017	18.0
5.847	519.002581165	12.0
5.8573	519.115427643	13.0
5.8675	519.226577502	19.0
5.8778	519.338213421	19.0
5.888	519.448170922	18.0
5.8982	519.557539925	8.0
5.9085	519.667387201	15.0
5.9187	519.77558295	17.0
5.929	519.88425184	14.0
5.9392	519.99128692	14.0
5.9494	520.097749145	20.0
5.9597	520.204676929	11.0
5.9699	520.309997081	13.0
5.9802	520.4157778	10.0
5.9904	520.519968131	9.0
6.0006	520.623600832	13.0
6.0109	520.72768672	10.0
6.0211	520.830207702	12.0
6.0314	520.933177009	14.0
6.0416	521.034598199	12.0
6.0518	521.135476578	14.0
6.0621	521.236796099	10.0
6.0723	521.336592307	13.0
6.0826	521.436824925	11.0
6.0928	521.53555057	13.0
6.103	521.633747831	5.0
6.1133	521.732374511	6.0
6.1235	521.829518362	7.0
6.1338	521.927087025	10.0
6.144	522.023188767	9.0
6.1542	522.118776169	11.0
6.1645	522.214781575	5.0
6.1747	522.309343564	9.0
6.185	522.404319074	7.0
6.1952	522.49786665	6.0
6.2054	522.590913556	20.0
6.2157	522.684367358	8.0
6.2259	522.776416104	6.0
6.2362	522.868867381	9.0
6.2464	522.959928676	11.0
6.2566	523.050502607	2.0
6.2669	523.141472618	3.0
6.2771	523.231074919	4.0
6.2874	523.321069051	5.0
6.2976	523.409710144	4.0
6.3078	523.497876826	3.0
6.3181	523.586429061	5.0
6.3283	523.673649936	7.0
6.3386	523.761252229	6.0
6.3488	523.847537444	6.0
6.359	523.933360856	6.0
6.3693	524.019559575	5.0
6.3795	524.104462317	8.0
6.3898	524.189736341	2.0
6.4	524.27372829	5.0
6.4102	524.357270711	6.0
6.4205	524.441178465	9.0
6.4307	524.523824685	3.0
6.441	524.606832319	4.0
6.4512	524.688591954	5.0
6.4614	524.769914008	5.0
6.4717	524.851591684	4.0
6.4819	524.932041356	0.0
6.4922	525.012842836	7.0
6.5024	525.092429485	11.0
6.5126	525.171590184	4.0
6.5229	525.251097053	6.0
6.5331	525.329408556	8.0
6.5434	525.408062517	6.0
6.5536	525.485533934	8.0
6.5638	525.562590721	2.0
6.5741	525.639984479	4.0
6.5843	525.716214641	8.0
6.5946	525.792778158	7.0
6.6048	525.868190561	7.0
6.615	525.943199354	6.0
6.6253	526.018536162	2.0
6.6355	526.092740299	2.0
6.6458	526.167268932	6.0
6.656	526.240677046	0.0
6.6662	526.313692276	6.0
6.6765	526.387026802	3.0
6.6867	526.459258763	3.0
6.697	526.531806594	3.0
6.7072	526.603263687	2.0
6.7174	526.674338338	1.0
6.7277	526.7457238	5.0
6.7379	526.816035999	4.0
6.7482	526.886655675	7.0
6.7584	526.9562136	4.0
6.7686	527.025399249	6.0
6.7789	527.094887448	5.0
6.7891	527.163330909	5.0
6.7994	527.232073674	3.0
6.8096	527.299782908	0.0
6.8198	527.36712976	4.0
6.8301	527.434771121	7.0
6.8403	527.50139551	4.0
6.8506	527.568311249	0.0
6.8608	527.634220926	4.0
6.871	527.699777851	4.0
6.8813	527.765621458	2.0
6.8915	527.830475123	2.0
6.9018	527.895612394	6.0
6.912	527.959770341	2.0
6.9222	528.023584913	1.0
6.9325	528.087678547	4.0
6.9427	528.150808549	3.0
6.953	528.214214619	1.0
6.9632	528.276667395	5.0
6.9734	528.33878592	2.0
6.9837	528.401176091	6.0
6.9939	528.462628241	2.0
7.0042	528.524349122	5.0
7.0144	528.585142045	10.0
7.0246	528.645609602	6.0
7.0349	528.706341584	8.0
7.0451	528.766160476	8.0
7.0554	528.826240956	2.0
7.0656	528.885418141	4.0
7.0758	528.944278608	4.0
7.0861	529.003396472	3.0
7.0963	529.061625514	5.0
7.1066	529.120109192	4.0
7.1168	529.177713582	5.0
7.127	529.235009672	2.0
7.1373	529.292556317	0.0
7.1475	529.349237764	1.0
7.1578	529.406167079	7.0
7.168	529.462240475	2.0
7.1782	529.518013765	3.0
7.1885	529.574030952	3.0
7.1987	529.629205934	6.0
7.209	529.684622198	6.0
7.2192	529.739205291	0.0
7.2294	529.793496254	2.0
7.2397	529.848024631	1.0
7.2499	529.901733188	2.0
7.2602	529.955676613	3.0
7.2704	530.008809012	5.0
7.2806	530.061657044	2.0
7.2909	530.114736182	5.0
7.3011	530.167017287	2.0
7.3114	530.219527019	4.0
7.3216	530.27124728	1.0
7.3318	530.322690732	4.0
7.3421	530.374359146	4.0
7.3523	530.425250739	4.0
7.3626	530.476364882	4.0
7.3728	530.526710536	2.0
7.383	530.576786737	5.0
7.3933	530.627081923	4.0
7.4035	530.676620933	4.0
7.4138	530.726376578	4.0
7.424	530.775384159	1.0
7.4342	530.82412945	2.0
7.4445	530.873087904	3.0
7.4547	530.92131028	2.0
7.465	530.969743533	6.0
7.4752	531.017448604	1.0
7.4854	531.064898355	4.0
7.4957	531.112555605	2.0
7.5059	531.15949634	6.0
7.5162	531.206642347	1.0
7.5264	531.253079526	3.0
7.5366	531.299268171	2.0
7.5469	531.3456588	1.0
7.5571	531.391351957	7.0
7.5674	531.43724493	5.0
7.5776	531.482447915	5.0
7.5878	531.527408971	1.0
7.5981	531.572566642	1.0
7.6083	531.617045379	5.0
7.6186	531.661718622	5.0
7.6288	531.705720213	2.0
7.639	531.749486307	4.0
7.6493	531.79344379	2.0
7.6595	531.836740383	6.0
7.6698	531.880226313	1.0
7.68	531.923058442	2.0
7.6902	531.965661333	5.0
7.7005	532.008450526	3.0
7.7107	532.050596394	3.0
7.721	532.092926567	3.0
7.7312	532.134620316	1.0
7.7414	532.176090918	4.0
7.7517	532.217742872	4.0
7.7619	532.258768599	2.0
7.7722	532.299973732	3.0
7.7824	532.340559356	0.0
7.7926	532.380927764	2.0
7.8029	532.421472704	3.0
7.8131	532.46140806	3.0
7.8234	532.501518055	3.0
7.8336	532.541025005	5.0
