TL-DOS Lehrstuhlversuch
detector=R1406904
job_number=2015-10-15-008
irradiation_dose [mSv]=1.0

[BEGIN DATA]
time [sec] 	 temperature [K] 	 photoncount 
0.0	168.743557868	0.0
0.0102	170.115201334	0.0
0.0205	171.495405726	4.0
0.0307	172.857388004	1.0
0.041	174.22787091	1.0
0.0512	175.580260048	0.0
0.0614	176.927901219	0.0
0.0717	178.283953509	0.0
0.0819	179.622102551	0.0
0.0922	180.96860347	3.0
0.1024	182.297327243	2.0
0.1126	183.621386133	1.0
0.1229	184.953708956	2.0
0.1331	186.26844182	0.0
0.1434	187.59138041	3.0
0.1536	188.896852937	0.0
0.1638	190.19774221	0.0
0.1741	191.506750807	0.0
0.1843	192.79847725	0.0
0.1946	194.098265828	1.0
0.2048	195.38089398	1.0
0.215	196.659019081	1.0
0.2253	197.945121425	1.0
0.2355	199.214244035	0.0
0.2458	200.491287702	1.0
0.256	201.751471231	0.0
0.2662	203.007230507	1.0
0.2765	204.270827435	0.0
0.2867	205.517741755	0.0
0.297	206.772438521	0.0
0.3072	208.010570185	0.0
0.3174	209.244355015	0.0
0.3277	210.485840346	0.0
0.3379	211.710934998	0.0
0.3482	212.943675911	0.0
0.3584	214.160141593	0.0
0.3686	215.372336506	0.0
0.3789	216.59209717	0.0
0.3891	217.795753974	0.0
0.3994	219.006923238	0.0
0.4096	220.202102069	0.0
0.4198	221.393084867	0.0
0.4301	222.591501022	0.0
0.4403	223.774095117	0.0
0.4506	224.964070213	0.0
0.4608	226.138334691	0.0
0.471	227.308476562	0.0
0.4813	228.485921715	1.0
0.4915	229.647821676	0.0
0.5018	230.816973479	0.0
0.512	231.970689583	0.0
0.5222	233.120355221	2.0
0.5325	234.277196341	0.0
0.5427	235.418764295	2.0
0.553	236.567457189	0.0
0.5632	237.700984495	0.0
0.5734	238.830532212	0.0
0.5837	239.967129848	0.0
0.5939	241.088721582	0.0
0.6042	242.217313578	0.0
0.6144	243.331005366	0.0
0.6246	244.440787205	0.0
0.6349	245.557495596	0.0
0.6451	246.659460672	0.0
0.6554	247.768303514	0.0
0.6656	248.862506885	0.0
0.6758	249.952868727	0.0
0.6861	251.050035915	0.0
0.6963	252.132717779	0.0
0.7066	253.222157055	7.0
0.7168	254.297213037	0.0
0.727	255.368494711	0.0
0.7373	256.446462645	0.0
0.7475	257.510198733	0.0
0.7578	258.580573986	0.0
0.768	259.636817635	0.0
0.7782	260.689353025	1.0
0.7885	261.748457671	0.0
0.7987	262.793579514	0.0
0.809	263.845224343	0.0
0.8192	264.882984857	0.0
0.8294	265.917102002	0.0
0.8397	266.957673448	0.0
0.8499	267.984506775	0.0
0.8602	269.017748943	0.0
0.8704	270.037349756	0.0
0.8806	271.053370955	0.0
0.8909	272.075733513	0.0
0.9011	273.084598353	0.0
0.9114	274.099759887	0.0
0.9216	275.101518775	1.0
0.9318	276.099760689	0.0
0.9421	277.104232993	0.0
0.9523	278.095443777	0.0
0.9626	279.092841068	0.0
0.9728	280.077070246	0.0
0.983	281.057843992	0.0
0.9933	282.044739104	1.0
1.0035	283.018604758	0.0
1.0138	283.998548662	0.0
1.024	284.96555488	0.0
1.0342	285.929166133	0.0
1.0445	286.898791635	1.0
1.0547	287.85561568	0.0
1.065	288.818411612	0.0
1.0752	289.768496255	0.0
1.0854	290.715245341	0.0
1.0957	291.667903432	1.0
1.1059	292.607984078	0.0
1.1162	293.55393211	0.0
1.1264	294.487391286	0.0
1.1366	295.417573274	0.0
1.1469	296.353560866	0.0
1.1571	297.277191105	0.0
1.1674	298.206586057	0.0
1.1776	299.123710695	1.0
1.1878	300.037615491	0.0
1.1981	300.9572243	0.0
1.2083	301.864691997	0.0
1.2186	302.77782353	0.0
1.2288	303.678899466	1.0
1.239	304.576811905	1.0
1.2493	305.480328542	0.0
1.2595	306.371916523	0.0
1.2698	307.269069229	0.0
1.28	308.154377299	0.0
1.2902	309.036577229	1.0
1.3005	309.92428329	0.0
1.3107	310.800269434	0.0
1.321	311.681722926	0.0
1.3312	312.551539051	0.0
1.3414	313.418301424	2.0
1.3517	314.290473578	1.0
1.3619	315.1511309	1.0
1.3722	316.017159897	1.0
1.3824	316.871755169	1.0
1.3926	317.723350126	0.0
1.4029	318.580260199	0.0
1.4131	319.425856937	0.0
1.4234	320.276731352	0.0
1.4336	321.116372119	1.0
1.4438	321.953065075	1.0
1.4541	322.794980136	0.0
1.4643	323.625779834	1.0
1.4746	324.461764856	2.0
1.4848	325.286712807	0.0
1.495	326.108764529	0.0
1.5053	326.935946976	1.0
1.5155	327.752208567	1.0
1.5258	328.573564744	0.0
1.536	329.384076987	0.0
1.5462	330.191743682	0.0
1.5565	331.00445132	0.0
1.5667	331.806429205	1.0
1.577	332.613412526	2.0
1.5872	333.40974167	0.0
1.5974	334.203275061	1.0
1.6077	335.001761184	0.0
1.6179	335.789705312	2.0
1.6282	336.582567287	0.0
1.6384	337.364961522	2.0
1.6486	338.144608926	0.0
1.6589	338.929122394	4.0
1.6691	339.703278342	0.0
1.6794	340.48226608	2.0
1.6896	341.250969251	2.0
1.6998	342.016973659	4.0
1.7101	342.787758979	3.0
1.7203	343.548368025	2.0
1.7306	344.313724309	2.0
1.7408	345.068975995	4.0
1.751	345.821576144	1.0
1.7613	346.578873544	4.0
1.7715	347.326172745	2.0
1.7818	348.078136111	2.0
1.792	348.8201717	5.0
1.8022	349.55960215	2.0
1.8125	350.303647655	5.0
1.8227	351.037869917	6.0
1.833	351.776674728	1.0
1.8432	352.505725487	5.0
1.8534	353.232216694	4.0
1.8637	353.963242197	7.0
1.8739	354.684616354	5.0
1.8842	355.41049287	6.0
1.8944	356.126786019	12.0
1.9046	356.840564406	11.0
1.9149	357.558797744	8.0
1.9251	358.267548623	11.0
1.9354	358.980723075	11.0
1.9456	359.68448186	10.0
1.9558	360.385769887	14.0
1.9661	361.091434909	19.0
1.9763	361.787783405	13.0
1.9866	362.488478066	17.0
1.9968	363.179921823	14.0
2.007	363.868938059	20.0
2.0173	364.562254697	18.0
2.0275	365.246417838	25.0
2.0378	365.934851091	29.0
2.048	366.614195321	26.0
2.0582	367.291154509	23.0
2.0685	367.972338846	26.0
2.0787	368.644529863	27.0
2.089	369.32091627	20.0
2.0992	369.988372701	33.0
2.1094	370.653485826	23.0
2.1197	371.322750165	24.0
2.1299	371.983178557	34.0
2.1402	372.647728924	25.0
2.1504	373.303505581	41.0
2.1606	373.956979937	27.0
2.1709	374.614532864	39.0
2.1811	375.263404466	35.0
2.1914	375.916325911	35.0
2.2016	376.560627177	56.0
2.2118	377.202666429	45.0
2.2221	377.848712883	51.0
2.2323	378.486229924	48.0
2.2426	379.127725941	48.0
2.2528	379.760752623	62.0
2.263	380.391556875	45.0
2.2733	381.026298206	59.0
2.2835	381.65265938	55.0
2.2938	382.282929902	61.0
2.304	382.904879293	70.0
2.3142	383.524645144	79.0
2.3245	384.14827918	79.0
2.3347	384.763679702	70.0
2.345	385.382921163	77.0
2.3552	385.993987104	78.0
2.3654	386.602907715	69.0
2.3757	387.215628821	82.0
2.3859	387.820260492	92.0
2.3962	388.428665889	96.0
2.4064	389.029038829	102.0
2.4166	389.627303979	101.0
2.4269	390.22930312	101.0
2.4371	390.823354382	116.0
2.4474	391.421113335	99.0
2.4576	392.01098039	105.0
2.4678	392.598776539	119.0
2.4781	393.190241338	123.0
2.4883	393.773897338	138.0
2.4986	394.361196147	123.0
2.5088	394.940741158	121.0
2.519	395.518251503	160.0
2.5293	396.0993663	123.0
2.5395	396.672808943	155.0
2.5498	397.249830651	129.0
2.56	397.819234243	162.0
2.5702	398.386638774	140.0
2.5805	398.957584682	174.0
2.5907	399.520992692	150.0
2.601	400.087917136	159.0
2.6112	400.647356774	172.0
2.6214	401.204832331	155.0
2.6317	401.765787296	162.0
2.6419	402.319336267	166.0
2.6522	402.876340139	150.0
2.6624	403.425990181	157.0
2.6726	403.973710511	170.0
2.6829	404.524849363	153.0
2.6931	405.068711819	190.0
2.7034	405.615968718	171.0
2.7136	406.156000471	170.0
2.7238	406.694136281	162.0
2.7341	407.235630792	154.0
2.7443	407.769976235	154.0
2.7546	408.307656723	144.0
2.7648	408.838238497	168.0
2.775	409.366957505	151.0
2.7853	409.898976441	152.0
2.7955	410.42397141	143.0
2.8058	410.952243063	128.0
2.816	411.473540223	143.0
2.8262	411.993007213	149.0
2.8365	412.515716386	125.0
2.8467	413.031524503	126.0
2.857	413.550551967	122.0
2.8672	414.062726984	136.0
2.8774	414.573103856	101.0
2.8877	415.086666177	128.0
2.8979	415.593448203	93.0
2.9082	416.103393241	83.0
2.9184	416.606605742	88.0
2.9286	417.108051564	97.0
2.9389	417.612627092	113.0
2.9491	418.110540975	90.0
2.9594	418.611562519	98.0
2.9696	419.105969339	82.0
2.9798	419.598640395	90.0
2.9901	420.09438639	69.0
3.0003	420.583587312	89.0
3.0106	421.075841514	77.0
3.0208	421.561596742	90.0
3.031	422.045646581	77.0
3.0413	422.532717551	76.0
3.0515	423.013357979	68.0
3.0618	423.496998259	82.0
3.072	423.974253289	88.0
3.0822	424.449832773	72.0
3.0925	424.928380522	79.0
3.1027	425.400610255	82.0
3.113	425.875787347	76.0
3.1232	426.344690924	82.0
3.1334	426.811948275	85.0
3.1437	427.282121949	73.0
3.1539	427.746088166	91.0
3.1642	428.212950166	80.0
3.1744	428.673648432	98.0
3.1846	429.132729278	84.0
3.1949	429.594675415	91.0
3.2051	430.050522719	110.0
3.2154	430.509215133	98.0
3.2256	430.961851671	100.0
3.2358	431.412899093	85.0
3.2461	431.866761666	102.0
3.2563	432.314632129	125.0
3.2666	432.765297916	110.0
3.2768	433.210013798	129.0
3.287	433.653168371	123.0
3.2973	434.099088834	93.0
3.3075	434.539122043	110.0
3.3178	434.981901659	130.0
3.328	435.418835489	101.0
3.3382	435.854235331	116.0
3.3485	436.292352662	124.0
3.3587	436.724685759	134.0
3.369	437.159717205	131.0
3.3792	437.589005159	140.0
3.3894	438.016785969	125.0
3.3997	438.447236715	149.0
3.4099	438.872004445	113.0
3.4202	439.299423305	127.0
3.4304	439.721199179	160.0
3.4406	440.141494281	163.0
3.4509	440.564412599	144.0
3.4611	440.981747347	148.0
3.4714	441.401686834	162.0
3.4816	441.81608208	142.0
3.4918	442.229022467	172.0
3.5021	442.644540166	150.0
3.5123	443.054572002	156.0
3.5226	443.467162997	146.0
3.5328	443.874306769	183.0
3.543	444.28002114	150.0
3.5533	444.688267723	153.0
3.5635	445.09112444	153.0
3.5738	445.496495533	148.0
3.584	445.896514724	153.0
3.5942	446.295129527	153.0
3.6045	446.69623223	151.0
3.6147	447.092039385	150.0
3.625	447.490316917	172.0
3.6352	447.883336199	143.0
3.6454	448.274975669	150.0
3.6557	448.669059504	141.0
3.6659	449.057940456	146.0
3.6762	449.449248557	154.0
3.6864	449.835390421	131.0
3.6966	450.220176619	130.0
3.7069	450.607364407	142.0
3.7171	450.989440359	114.0
3.7274	451.373900985	164.0
3.7376	451.75328578	139.0
3.7478	452.13133863	141.0
3.7581	452.511751046	145.0
3.7683	452.887141076	128.0
3.7786	453.264874052	137.0
3.7888	453.637620018	136.0
3.799	454.009057347	156.0
3.8093	454.382812952	133.0
3.8195	454.751634057	127.0
3.8298	455.12275711	132.0
3.84	455.488980419	121.0
3.8502	455.853917992	117.0
3.8605	456.221133273	136.0
3.8707	456.583500403	158.0
3.881	456.948129199	129.0
3.8912	457.307943992	146.0
3.9014	457.666495546	136.0
3.9117	458.027284952	127.0
3.9219	458.383311045	133.0
3.9322	458.741559226	140.0
3.9424	459.095077644	116.0
3.9526	459.44735493	122.0
3.9629	459.801830906	128.0
3.9731	460.151626923	151.0
3.9834	460.503606143	132.0
3.9936	460.850938367	124.0
4.0038	461.197051176	106.0
4.0141	461.545324202	118.0
4.0243	461.888999161	127.0
4.0346	462.234819122	111.0
4.0448	462.576073402	129.0
4.055	462.916129607	108.0
4.0653	463.258308227	130.0
4.0755	463.595969242	106.0
4.0858	463.935737722	113.0
4.096	464.271020417	118.0
4.1062	464.605126002	121.0
4.1165	464.941316861	134.0
4.1267	465.273069169	107.0
4.137	465.606892064	115.0
4.1472	465.93630767	98.0
4.1574	466.264566764	122.0
4.1677	466.594874642	111.0
4.1779	466.920821639	138.0
4.1882	467.24880299	122.0
4.1984	467.572454175	133.0
4.2086	467.894969085	115.0
4.2189	468.219496928	120.0
4.2291	468.539740201	110.0
4.2394	468.861982228	128.0
4.2496	469.179969863	130.0
4.2598	469.496841107	113.0
4.2701	469.815690059	121.0
4.2803	470.130329417	112.0
4.2906	470.446932553	133.0
4.3008	470.759355744	110.0
4.311	471.070682079	140.0
4.3213	471.383951516	119.0
4.3315	471.693085021	136.0
4.3418	472.00414794	134.0
4.352	472.311104059	114.0
4.3622	472.616982516	110.0
4.3725	472.924770072	126.0
4.3827	473.228494071	129.0
4.393	473.534113721	142.0
4.4032	473.835698436	116.0
4.4134	474.136224347	114.0
4.4237	474.438625949	123.0
4.4339	474.737035102	118.0
4.4442	475.037306735	111.0
4.4544	475.33361404	102.0
4.4646	475.628881068	115.0
4.4749	475.925990966	122.0
4.4851	476.219178277	102.0
4.4954	476.514195478	138.0
4.5056	476.805317721	121.0
4.5158	477.095417892	118.0
4.5261	477.387328683	117.0
4.5363	477.67538553	108.0
4.5466	477.965240244	124.0
4.5568	478.251268159	112.0
4.567	478.536291887	114.0
4.5773	478.823094551	125.0
4.5875	479.106110711	116.0
4.5978	479.390893278	115.0
4.608	479.671916009	104.0
4.6182	479.951952126	109.0
4.6285	480.233736051	115.0
4.6387	480.51179973	115.0
4.649	480.791598905	114.0
4.6592	481.06770404	113.0
4.6694	481.342839824	96.0
4.6797	481.61969283	97.0
4.6899	481.892890692	122.0
4.7002	482.167793681	99.0
4.7104	482.43906727	113.0
4.7206	482.709388472	126.0
4.7309	482.981396847	124.0
4.7411	483.249814038	130.0
4.7514	483.519906518	123.0
4.7616	483.786433109	135.0
4.7718	484.052023979	116.0
4.7821	484.319272497	106.0
4.7923	484.582992674	109.0
4.8026	484.848358825	117.0
4.8128	485.110221485	103.0
4.823	485.371164798	122.0
4.8333	485.633736753	100.0
4.8435	485.892842109	119.0
4.8538	486.153564635	113.0
4.864	486.410844979	88.0
4.8742	486.667222062	92.0
4.8845	486.925199289	113.0
4.8947	487.179770577	94.0
4.905	487.435930738	116.0
4.9152	487.68870895	102.0
4.9254	487.940599709	100.0
4.9357	488.194062609	94.0
4.9459	488.444179172	83.0
4.9562	488.695856803	93.0
4.9664	488.944211667	92.0
4.9766	489.191694606	88.0
4.9869	489.440722177	87.0
4.9971	489.686461967	96.0
5.0074	489.933735509	100.0
5.0176	490.177744427	88.0
5.0278	490.42089668	113.0
5.0381	490.665566534	86.0
5.0483	490.90700614	90.0
5.0586	491.149952659	100.0
5.0688	491.389691682	78.0
5.079	491.62858903	108.0
5.0893	491.868977423	99.0
5.0995	492.106192094	92.0
5.1098	492.344887308	84.0
5.12	492.580431155	98.0
5.1302	492.815148054	100.0
5.1405	493.051329907	94.0
5.1507	493.284393574	115.0
5.161	493.518911877	99.0
5.1712	493.750333958	97.0
5.1814	493.980943562	93.0
5.1917	494.212992485	88.0
5.2019	494.441977787	91.0
5.2122	494.67239227	116.0
5.2224	494.899764712	115.0
5.2326	495.126338894	86.0
5.2429	495.354327209	99.0
5.2531	495.579305513	109.0
5.2634	495.805687989	98.0
5.2736	496.029081656	86.0
5.2838	496.251691032	77.0
5.2941	496.475689794	109.0
5.3043	496.696731219	99.0
5.3146	496.919152243	95.0
5.3248	497.138636759	87.0
5.335	497.357350709	99.0
5.3453	497.577429732	89.0
5.3555	497.794603168	107.0
5.3658	498.013132062	95.0
5.376	498.228775833	97.0
5.3862	498.443662523	107.0
5.3965	498.659890398	82.0
5.4067	498.87326353	102.0
5.417	499.087968402	101.0
5.4272	499.299838638	123.0
5.4374	499.51096504	83.0
5.4477	499.723409159	108.0
5.4579	499.933048489	101.0
5.4682	500.143996255	99.0
5.4784	500.352158988	88.0
5.4886	500.559590903	95.0
5.4989	500.768317477	86.0
5.5091	500.974288343	100.0
5.5194	501.181544748	96.0
5.5296	501.386064856	109.0
5.5398	501.589866934	101.0
5.5501	501.794941015	86.0
5.5603	501.997307611	96.0
5.5706	502.200937251	111.0
5.5808	502.401878475	67.0
5.591	502.602114235	81.0
5.6013	502.803599739	91.0
5.6115	503.002425135	92.0
5.6218	503.202491474	94.0
5.632	503.399916441	75.0
5.6422	503.596648289	98.0
5.6525	503.794608012	92.0
5.6627	503.989954177	94.0
5.673	504.186519568	89.0
5.6832	504.380489809	84.0
5.6934	504.57377906	80.0
5.7037	504.768274699	83.0
5.7139	504.960202514	87.0
5.7242	505.153328221	81.0
5.7344	505.34390419	72.0
5.7446	505.533811085	98.0
5.7549	505.724903259	82.0
5.7651	505.913472542	74.0
5.7754	506.103218755	75.0
5.7856	506.290459849	75.0
5.7958	506.477043576	77.0
5.8061	506.664791841	55.0
5.8163	506.850061363	77.0
5.8266	507.03648722	87.0
5.8368	507.220451794	66.0
5.847	507.403770506	75.0
5.8573	507.588233376	82.0
5.8675	507.77026088	46.0
5.8778	507.953424484	76.0
5.888	508.134169874	80.0
5.8982	508.314280704	79.0
5.9085	508.495515671	52.0
5.9187	508.674357888	51.0
5.929	508.854316325	72.0
5.9392	509.031898864	64.0
5.9494	509.208857947	62.0
5.9597	509.386921495	73.0
5.9699	509.562634165	63.0
5.9802	509.73944352	61.0
5.9904	509.913918555	51.0
6.0006	510.087781043	50.0
6.0109	510.26272867	51.0
6.0211	510.435366555	57.0
6.0314	510.609081936	60.0
6.0416	510.780503844	47.0
6.0518	510.951323924	47.0
6.0621	511.123210154	43.0
6.0723	511.292827061	38.0
6.0826	511.463502608	49.0
6.0928	511.631924816	51.0
6.103	511.799755727	39.0
6.1133	511.968634131	37.0
6.1235	512.135282923	48.0
6.1338	512.302971831	45.0
6.144	512.46844683	43.0
6.1542	512.633340879	44.0
6.1645	512.799264092	37.0
6.1747	512.962996708	39.0
6.185	513.127751239	32.0
6.1952	513.290330602	39.0
6.2054	513.452339182	37.0
6.2157	513.615358916	32.0
6.2259	513.776226386	28.0
6.2362	513.938097889	38.0
6.2464	514.097832287	36.0
6.2566	514.257005889	33.0
6.2669	514.417172952	34.0
6.2771	514.575225413	36.0
6.2874	514.734264337	31.0
6.2976	514.891203554	32.0
6.3078	515.047591789	23.0
6.3181	515.204956099	29.0
6.3283	515.360242811	23.0
6.3386	515.516498724	31.0
6.3488	515.670691672	30.0
6.359	515.824343279	30.0
6.3693	515.978953882	18.0
6.3795	516.131523243	34.0
6.3898	516.285044844	18.0
6.4	516.43653958	22.0
6.4102	516.587502448	27.0
6.4205	516.739407531	12.0
6.4307	516.889307091	22.0
6.441	517.040142228	23.0
6.4512	517.188985968	19.0
6.4614	517.337307147	20.0
6.4717	517.486554053	18.0
6.4819	517.633830531	21.0
6.4922	517.782026214	14.0
6.5024	517.928265348	17.0
6.5126	518.073991065	22.0
6.5229	518.220626309	19.0
6.5331	518.365325606	18.0
6.5434	518.510928023	19.0
6.5536	518.654608128	11.0
6.5638	518.797783801	11.0
6.5741	518.941853085	15.0
6.5843	519.084020298	12.0
6.5946	519.227074829	12.0
6.6048	519.368240686	11.0
6.615	519.508910937	13.0
6.6253	519.650459163	4.0
6.6355	519.790138602	10.0
6.6458	519.930689831	9.0
6.656	520.069385436	15.0
6.6662	520.207594108	15.0
6.6765	520.346665391	12.0
6.6867	520.483900589	12.0
6.697	520.621992321	9.0
6.7072	520.758260901	14.0
6.7174	520.89405107	4.0
6.7277	521.030688754	9.0
6.7379	521.165522482	6.0
6.7482	521.301197757	10.0
6.7584	521.435081782	5.0
6.7686	521.568495768	8.0
6.7789	521.702742438	2.0
6.7891	521.83521672	8.0
6.7994	521.968517823	10.0
6.8096	522.100059021	8.0
6.8198	522.231138404	5.0
6.8301	522.363035901	5.0
6.8403	522.493192025	4.0
6.8506	522.624160501	10.0
6.8608	522.753399868	5.0
6.871	522.882185502	7.0
6.8813	523.011774934	2.0
6.8915	523.139653464	7.0
6.9018	523.268330132	2.0
6.912	523.395307948	6.0
6.9222	523.521839971	5.0
6.9325	523.649161726	2.0
6.9427	523.774802519	8.0
6.953	523.901227482	5.0
6.9632	524.025983323	2.0
6.9734	524.15030117	6.0
6.9837	524.275394931	6.0
6.9939	524.398837144	5.0
7.0042	524.523049805	3.0
7.0144	524.645622552	3.0
7.0246	524.76776497	4.0
7.0349	524.890669723	6.0
7.0451	525.011951829	4.0
7.0554	525.133990902	5.0
7.0656	525.254418756	4.0
7.0758	525.374423812	3.0
7.0861	525.495177864	4.0
7.0963	525.614337663	1.0
7.1066	525.734241182	1.0
7.1168	525.852561677	5.0
7.127	525.970466773	4.0
7.1373	526.089107758	2.0
7.1475	526.206182387	3.0
7.1578	526.323987723	3.0
7.168	526.440237736	3.0
7.1782	526.556079619	1.0
7.1885	526.672644513	3.0
7.1987	526.787670462	3.0
7.209	526.903414329	0.0
7.2192	527.017630092	2.0
7.2294	527.131444865	2.0
7.2397	527.245969998	0.0
7.2499	527.358983116	3.0
7.2602	527.472701589	0.0
7.2704	527.584918698	3.0
7.2806	527.696741834	1.0
7.2909	527.8092629	1.0
7.3011	527.920298408	3.0
7.3114	528.03202693	2.0
7.3216	528.142280359	1.0
7.3318	528.25214671	0.0
7.3421	528.362698777	2.0
7.3523	528.471791283	1.0
7.3626	528.581564675	0.0
7.3728	528.689888787	0.0
7.383	528.797832594	1.0
7.3933	528.906450118	2.0
7.4035	529.013633622	1.0
7.4138	529.121486097	1.0
7.424	529.227914652	1.0
7.4342	529.333969558	2.0
7.4445	529.440686391	5.0
7.4547	529.545994298	2.0
7.465	529.65195947	3.0
7.4752	529.756525639	1.0
7.4854	529.860724697	0.0
7.4957	529.9655741	0.0
7.5059	530.069039231	2.0
7.5162	530.173150126	1.0
7.5264	530.275886499	1.0
7.5366	530.378262185	3.0
7.5469	530.481276835	1.0
7.5571	530.582931437	1.0
7.5674	530.685220502	2.0
7.5776	530.786159098	2.0
7.5878	530.886743319	1.0
7.5981	530.987955323	1.0
7.6083	531.087831077	2.0
7.6186	531.188330193	1.0
7.6288	531.287502472	1.0
7.639	531.386326576	0.0
7.6493	531.485767478	0.0
7.6595	531.583895514	4.0
7.6698	531.682636002	0.0
7.68	531.780072872	1.0
7.6902	531.87716766	1.0
7.7005	531.974868453	2.0
7.7107	532.071279352	0.0
7.721	532.168291988	2.0
7.7312	532.264023816	2.0
7.7414	532.35941955	1.0
7.7517	532.455410682	2.0
7.7619	532.550134495	0.0
7.7722	532.645449512	0.0
7.7824	532.739506136	0.0
7.7926	532.833232546	3.0
7.8029	532.927543936	1.0
7.8131	533.020610183	2.0
7.8234	533.11425729	0.0
7.8336	533.206668023	0.0
7.8438	533.298754321	2.0
7.8541	533.391415363	1.0
7.8643	533.48285305	2.0
7.8746	533.574861432	1.0
7.8848	533.665655076	0.0
7.895	533.756129962	1.0
7.9053	533.847169535	1.0
