TL-DOS Lehrstuhlversuch
detector=R1407606
job_number=2015-10-26-008
irradiation_dose [mSv]=0.5

[BEGIN DATA]
time [sec] 	 temperature [K] 	 photoncount 
0.0	182.005615704	0.0
0.0102	183.299864631	0.0
0.0205	184.602498706	0.0
0.0307	185.888238076	2.0
0.041	187.182307462	1.0
0.0512	188.459593224	0.0
0.0614	189.732693532	3.0
0.0717	191.014041971	1.0
0.0819	192.278771771	0.0
0.0922	193.551695472	2.0
0.1024	194.8081098	0.0
0.1126	196.060407066	1.0
0.1229	197.320817686	1.0
0.1331	198.564881223	0.0
0.1434	199.817004768	2.0
0.1536	201.052888712	2.0
0.1638	202.284722868	2.0
0.1741	203.524537802	2.0
0.1843	204.748272771	0.0
0.1946	205.979936046	0.0
0.2048	207.195625081	3.0
0.215	208.407330503	1.0
0.2253	209.626886293	2.0
0.2355	210.830624874	1.0
0.2458	212.042162207	1.0
0.256	213.237986327	0.0
0.2662	214.429891929	0.0
0.2765	215.62951962	0.0
0.2867	216.813588562	0.0
0.297	218.005328821	0.0
0.3072	219.181612628	0.0
0.3174	220.354041947	0.0
0.3277	221.534067173	1.0
0.3379	222.698787887	0.0
0.3482	223.871054565	0.0
0.3584	225.028117357	0.0
0.3686	226.181388645	0.0
0.3789	227.342131719	0.0
0.3891	228.487820363	0.0
0.3994	229.640931668	0.0
0.4096	230.779087525	0.0
0.4198	231.913513832	0.0
0.4301	233.055289834	0.0
0.4403	234.182257402	0.0
0.4506	235.31652634	0.0
0.4608	236.43608421	0.0
0.471	237.551973472	1.0
0.4813	238.675092332	1.0
0.4915	239.783644735	1.0
0.5018	240.8993792	0.0
0.512	242.000642982	0.0
0.5222	243.098298104	1.0
0.5325	244.203064687	1.0
0.5427	245.293502837	0.0
0.553	246.391005691	0.0
0.5632	247.474274318	0.0
0.5734	248.553993254	0.0
0.5837	249.640707446	0.0
0.5939	250.713327338	0.0
0.6042	251.792896493	0.0
0.6144	252.858464016	0.0
0.6246	253.92053985	0.0
0.6349	254.989496636	0.0
0.6451	256.044589427	0.0
0.6554	257.106517929	0.0
0.6656	258.154673591	1.0
0.6758	259.199394621	1.0
0.6861	260.250884163	0.0
0.6963	261.288736257	0.0
0.7066	262.333312361	2.0
0.7168	263.36434068	0.0
0.727	264.39199049	0.0
0.7373	265.426298213	0.0
0.7475	266.447191328	0.0
0.7578	267.474698581	0.0
0.768	268.488879427	0.0
0.7782	269.499736968	0.0
0.7885	270.51714363	0.0
0.7987	271.521354885	0.0
0.809	272.532072199	0.0
0.8192	273.529680866	1.0
0.8294	274.524020533	0.0
0.8397	275.524802305	0.0
0.8499	276.512604288	0.0
0.8602	277.50680602	0.0
0.8704	278.488113304	0.0
0.8806	279.466205007	0.0
0.8909	280.450633546	0.0
0.9011	281.422294394	0.0
0.9114	282.400250414	0.0
0.9216	283.365522689	0.0
0.9318	284.327631926	1.0
0.9421	285.295974453	0.0
0.9523	286.251757918	0.0
0.9626	287.21373369	0.0
0.9728	288.163232974	0.0
0.983	289.109620906	0.0
0.9933	290.062140273	0.0
1.0035	291.002305799	0.0
1.0138	291.948562447	0.0
1.024	292.882546479	0.0
1.0342	293.813469999	1.0
1.0445	294.750424764	0.0
1.0547	295.675227555	0.0
1.065	296.606021937	0.0
1.0752	297.524744242	0.0
1.0854	298.440456047	0.0
1.0957	299.362100542	0.0
1.1059	300.271791633	0.0
1.1162	301.187376409	0.0
1.1264	302.091086372	0.0
1.1366	302.991835026	1.0
1.1469	303.898419429	0.0
1.1571	304.793245752	0.0
1.1674	305.693869453	0.0
1.1776	306.582812382	0.0
1.1878	307.468842392	0.0
1.1981	308.360612791	0.0
1.2083	309.240817242	0.0
1.2186	310.126724341	0.0
1.2288	311.001141535	0.0
1.239	311.872693409	1.0
1.2493	312.749891873	1.0
1.2595	313.61571338	0.0
1.2698	314.487144352	0.0
1.28	315.34727317	1.0
1.2902	316.204583487	1.0
1.3005	317.067448127	1.0
1.3107	317.919121715	0.0
1.321	318.776313106	2.0
1.3312	319.622387025	1.0
1.3414	320.4656885	0.0
1.3517	321.314453537	0.0
1.3619	322.152210389	0.0
1.3722	322.995394881	0.0
1.3824	323.827643565	0.0
1.3926	324.657165109	1.0
1.4029	325.492060936	0.0
1.4131	326.316128459	1.0
1.4234	327.14553493	1.0
1.4336	327.964184291	2.0
1.4438	328.780151072	1.0
1.4541	329.60140432	0.0
1.4643	330.412006202	1.0
1.4746	331.227859792	2.0
1.4848	332.033132048	1.0
1.495	332.83576556	1.0
1.5053	333.643599154	3.0
1.5155	334.440955431	0.0
1.5258	335.2434776	0.0
1.536	336.035591339	2.0
1.5462	336.825109452	0.0
1.5565	337.619742676	0.0
1.5667	338.404069786	1.0
1.577	339.193478376	2.0
1.5872	339.972648614	2.0
1.5974	340.74926564	1.0
1.6077	341.530914194	2.0
1.6179	342.30242504	1.0
1.6282	343.078934333	0.0
1.6384	343.845372573	3.0
1.6486	344.609299322	2.0
1.6589	345.37817538	3.0
1.6691	346.137079387	5.0
1.6794	346.900900163	2.0
1.6896	347.654814451	2.0
1.6998	348.406258288	1.0
1.7101	349.16257056	3.0
1.7203	349.909073728	3.0
1.7306	350.660413323	1.0
1.7408	351.402008307	2.0
1.751	352.141173207	7.0
1.7613	352.885126991	4.0
1.7715	353.619431956	4.0
1.7818	354.358494319	4.0
1.792	355.087971302	4.0
1.8022	355.815057909	2.0
1.8125	356.546855148	2.0
1.8227	357.269161234	5.0
1.833	357.996146979	2.0
1.8432	358.713703975	5.0
1.8534	359.428909655	8.0
1.8637	360.148748992	5.0
1.8739	360.859252267	7.0
1.8842	361.574358732	11.0
1.8944	362.280190519	6.0
1.9046	362.983709411	9.0
1.9149	363.691786244	6.0
1.9251	364.39067957	8.0
1.9354	365.094100869	9.0
1.9456	365.788399041	12.0
1.9558	366.480422112	12.0
1.9661	367.176928646	11.0
1.9763	367.864401736	12.0
1.9866	368.556328809	14.0
1.9968	369.239281831	12.0
2.007	369.919996929	14.0
2.0173	370.605122228	11.0
2.0275	371.281361693	12.0
2.0378	371.961982361	14.0
2.048	372.633775619	14.0
2.0582	373.303367521	10.0
2.0685	373.977297559	16.0
2.0787	374.642486961	21.0
2.089	375.311985977	15.0
2.0992	375.972801826	20.0
2.1094	376.63145229	13.0
2.1197	377.294370003	22.0
2.1299	377.948689906	23.0
2.1402	378.607249001	22.0
2.1504	379.257266817	27.0
2.1606	379.905154631	24.0
2.1709	380.557239966	29.0
2.1811	381.200867982	38.0
2.1914	381.848665921	39.0
2.2016	382.488062148	34.0
2.2118	383.125363179	34.0
2.2221	383.766793141	25.0
2.2323	384.399903982	38.0
2.2426	385.037116606	39.0
2.2528	385.666064806	45.0
2.263	386.292952047	49.0
2.2733	386.92390075	41.0
2.2835	387.54666627	40.0
2.2938	388.173466548	52.0
2.304	388.792137447	47.0
2.3142	389.408781064	57.0
2.3245	390.029419777	58.0
2.3347	390.642009023	55.0
2.345	391.258567098	59.0
2.3552	391.867128632	60.0
2.3654	392.47369601	47.0
2.3757	393.084193202	54.0
2.3859	393.68677246	57.0
2.3962	394.293255694	76.0
2.4064	394.891873054	71.0
2.4166	395.488528844	76.0
2.4269	396.089050233	82.0
2.4371	396.68178307	90.0
2.4474	397.278356091	77.0
2.4576	397.867191769	79.0
2.4678	398.454097931	67.0
2.4781	399.044806525	77.0
2.4883	399.627853837	90.0
2.4986	400.214678582	67.0
2.5088	400.793892416	79.0
2.519	401.371208262	106.0
2.5293	401.952264408	80.0
2.5395	402.52578446	67.0
2.5498	403.10302022	97.0
2.56	403.672769436	96.0
2.5702	404.240651677	88.0
2.5805	404.8122131	81.0
2.5907	405.376361572	91.0
2.601	405.944165036	87.0
2.6112	406.504604288	91.0
2.6214	407.063207074	69.0
2.6317	407.625428922	93.0
2.6419	408.18035895	63.0
2.6522	408.738884245	78.0
2.6624	409.290165664	92.0
2.6726	409.839640625	76.0
2.6829	410.39267551	82.0
2.6931	410.938537728	82.0
2.7034	411.487936465	73.0
2.7136	412.030209693	66.0
2.7238	412.570705982	61.0
2.7341	413.114704024	69.0
2.7443	413.651646604	60.0
2.7546	414.192067914	56.0
2.7648	414.72548015	60.0
2.775	415.257144482	64.0
2.7853	415.792253347	59.0
2.7955	416.32042204	60.0
2.8058	416.852012618	55.0
2.816	417.376708654	55.0
2.8262	417.899685348	58.0
2.8365	418.42605029	64.0
2.8467	418.945588464	52.0
2.857	419.46849261	47.0
2.8672	419.984614873	50.0
2.8774	420.499045888	60.0
2.8877	421.016809786	49.0
2.8979	421.527858469	52.0
2.9082	422.042218122	57.0
2.9184	422.549906711	53.0
2.9286	423.055931688	61.0
2.9389	423.565235087	48.0
2.9491	424.067933001	37.0
2.9594	424.573887782	56.0
2.9696	425.073280507	56.0
2.9798	425.571036805	36.0
2.9901	426.072017954	61.0
3.0003	426.566501553	54.0
3.0106	427.064188802	52.0
3.0208	427.555421221	73.0
3.031	428.045043953	59.0
3.0413	428.537838841	48.0
3.0515	429.024242353	57.0
3.0618	429.513797164	71.0
3.072	429.997002621	70.0
3.0822	430.478624694	51.0
3.0925	430.963367088	64.0
3.1027	431.441822544	58.0
3.113	431.923377806	77.0
3.1232	432.398687465	79.0
3.1334	432.872439612	58.0
3.1437	433.349261094	71.0
3.1539	433.819898369	74.0
3.1642	434.293584797	64.0
3.1744	434.761127679	92.0
3.1846	435.2271385	105.0
3.1949	435.696168501	82.0
3.2051	436.159115347	71.0
3.2154	436.625061523	79.0
3.2256	437.08496454	86.0
3.2358	437.543360531	96.0
3.2461	438.004726367	104.0
3.2563	438.460108451	99.0
3.2666	438.918440852	107.0
3.2768	439.370828844	95.0
3.287	439.821734435	85.0
3.2973	440.275561342	84.0
3.3075	440.723502274	76.0
3.3178	441.174345315	97.0
3.328	441.61934108	115.0
3.3382	442.062878667	99.0
3.3485	442.509289835	81.0
3.3587	442.949911207	86.0
3.369	443.393387267	110.0
3.3792	443.831111597	95.0
3.3894	444.267401578	104.0
3.3997	444.706518183	104.0
3.4099	445.139939601	94.0
3.4202	445.576169058	100.0
3.4304	446.006740773	110.0
3.4406	446.435901576	76.0
3.4509	446.867842815	93.0
3.4611	447.294181928	106.0
3.4714	447.723283197	95.0
3.4816	448.146819173	98.0
3.4918	448.568967292	88.0
3.5021	448.993850414	102.0
3.5123	449.413222951	100.0
3.5226	449.835312509	100.0
3.5328	450.251927714	89.0
3.543	450.667177739	71.0
3.5533	451.085118076	81.0
3.5635	451.497637874	86.0
3.5738	451.912830296	95.0
3.584	452.322637818	87.0
3.5942	452.731102468	74.0
3.6045	453.142213469	95.0
3.6147	453.547992505	115.0
3.625	453.956400492	99.0
3.6352	454.359511571	67.0
3.6454	454.761301722	82.0
3.6557	455.165694982	83.0
3.6659	455.564843403	75.0
3.6762	455.966577817	90.0
3.6864	456.363101877	99.0
3.6966	456.758326593	88.0
3.7069	457.156111881	68.0
3.7171	457.548738034	81.0
3.7274	457.943907925	76.0
3.7376	458.3339526	88.0
3.7478	458.722719164	80.0
3.7581	459.114004458	99.0
3.7683	459.500214921	71.0
3.7786	459.888927554	77.0
3.7888	460.272598721	76.0
3.799	460.655012661	78.0
3.8093	461.039904176	77.0
3.8195	461.419803782	86.0
3.8298	461.802164673	75.0
3.84	462.179566478	61.0
3.8502	462.5557316	94.0
3.8605	462.93433381	66.0
3.8707	463.308025684	78.0
3.881	463.684138623	72.0
3.8912	464.05537351	92.0
3.9014	464.425391921	78.0
3.9117	464.797807599	84.0
3.9219	465.165393176	78.0
3.9322	465.535360258	81.0
3.9424	465.900528997	65.0
3.9526	466.264501138	66.0
3.9629	466.630831373	74.0
3.9731	466.992410434	72.0
3.9834	467.356332084	69.0
3.9936	467.715533799	82.0
4.0038	468.073558469	88.0
4.0141	468.433902701	78.0
4.0243	468.789573394	75.0
4.0346	469.147548399	65.0
4.0448	469.500880593	74.0
4.055	469.853054976	84.0
4.0653	470.207511018	82.0
4.0755	470.55736989	75.0
4.0858	470.909495419	75.0
4.096	471.257054004	100.0
4.1062	471.603473696	83.0
4.1165	471.952137765	76.0
4.1267	472.296279782	78.0
4.137	472.642651419	80.0
4.1472	472.984530738	76.0
4.1574	473.325289774	61.0
4.1677	473.668256512	53.0
4.1779	474.006775092	73.0
4.1882	474.347486858	78.0
4.1984	474.683779712	68.0
4.2086	475.01897059	76.0
4.2189	475.356333094	65.0
4.2291	475.689320126	72.0
4.2394	476.024464506	66.0
4.2496	476.355262181	69.0
4.2598	476.684975886	76.0
4.2701	477.016825733	85.0
4.2803	477.344371604	97.0
4.2906	477.674039572	62.0
4.3008	477.999431862	70.0
4.311	478.323757895	73.0
4.3213	478.650185163	72.0
4.3315	478.972378785	60.0
4.3418	479.296659827	71.0
4.352	479.616735058	62.0
4.3622	479.935761455	60.0
4.3725	480.256854753	79.0
4.3827	480.573783584	72.0
4.393	480.892765725	64.0
4.4032	481.20761078	70.0
4.4134	481.52142414	67.0
4.4237	481.837270627	68.0
4.4339	482.149020696	67.0
4.4442	482.462790523	72.0
4.4544	482.772490866	87.0
4.4646	483.081176372	64.0
4.4749	483.391861783	69.0
4.4851	483.698517713	69.0
4.4954	484.007160398	56.0
4.5056	484.311800095	54.0
4.5158	484.615441539	70.0
4.5261	484.921050208	67.0
4.5363	485.22269524	56.0
4.5466	485.526294562	60.0
4.5568	485.825956308	67.0
4.567	486.124636112	68.0
4.5773	486.425250995	61.0
4.5875	486.721967009	60.0
4.5978	487.02060538	62.0
4.608	487.315370516	62.0
4.6182	487.609169755	64.0
4.6285	487.904872453	55.0
4.6387	488.196739992	54.0
4.649	488.490498475	61.0
4.6592	488.780447014	68.0
4.6694	489.069445439	71.0
4.6797	489.36031622	54.0
4.6899	489.64741451	65.0
4.7002	489.936372845	73.0
4.7104	490.221583492	61.0
4.7206	490.505859551	64.0
4.7309	490.791977371	61.0
4.7411	491.074384343	54.0
4.7514	491.358620966	58.0
4.7616	491.639171141	74.0
4.7718	491.918801999	56.0
4.7821	492.200244523	43.0
4.7923	492.478036836	68.0
4.8026	492.757628903	65.0
4.8128	493.03359476	62.0
4.823	493.308656322	67.0
4.8333	493.585499946	63.0
4.8435	493.858753005	58.0
4.8538	494.133776411	70.0
4.864	494.405232859	51.0
4.8742	494.675799789	62.0
4.8845	494.948119662	64.0
4.8947	495.216907641	61.0
4.905	495.487437038	67.0
4.9152	495.754457764	77.0
4.9254	496.020603507	57.0
4.9357	496.288473548	51.0
4.9459	496.552869409	58.0
4.9562	496.818978232	52.0
4.9664	497.081635717	57.0
4.9766	497.343432517	63.0
4.9869	497.606925439	74.0
4.9971	497.867000951	65.0
5.0074	498.128761434	60.0
5.0176	498.387126975	73.0
5.0278	498.644645896	67.0
5.0381	498.903833223	67.0
5.0483	499.159658982	60.0
5.0586	499.417142179	60.0
5.0688	499.67128591	59.0
5.079	499.924596853	67.0
5.0893	500.179548941	74.0
5.0995	500.43119439	57.0
5.1098	500.684470194	51.0
5.12	500.934461099	69.0
5.1302	501.183632826	71.0
5.1405	501.434418881	70.0
5.1507	501.681952328	43.0
5.161	501.931089489	62.0
5.1712	502.176995429	71.0
5.1814	502.422095576	50.0
5.1917	502.668783671	63.0
5.2019	502.912272309	54.0
5.2122	503.157338455	60.0
5.2224	503.39922618	51.0
5.2326	503.640321278	66.0
5.2429	503.882978377	67.0
5.2531	504.122488299	50.0
5.2634	504.363549952	63.0
5.2736	504.601485121	71.0
5.2838	504.838640615	57.0
5.2941	505.077332586	62.0
5.3043	505.312928806	50.0
5.3146	505.550051402	55.0
5.3248	505.784098601	58.0
5.335	506.017378865	56.0
5.3453	506.252170501	53.0
5.3555	506.483916971	67.0
5.3658	506.717164875	56.0
5.376	506.947387636	51.0
5.3862	507.176855994	40.0
5.3965	507.407811027	59.0
5.4067	507.635770654	38.0
5.417	507.86520718	28.0
5.4272	508.091667996	45.0
5.4374	508.317386736	42.0
5.4477	508.544567858	47.0
5.4579	508.768802521	34.0
5.4682	508.994489949	43.0
5.4784	509.217250291	44.0
5.4886	509.439280685	45.0
5.4989	509.662749563	47.0
5.5091	509.883320129	46.0
5.5194	510.105319721	30.0
5.5296	510.324440058	34.0
5.5398	510.542842373	25.0
5.5501	510.762659667	43.0
5.5603	510.979626009	43.0
5.5706	511.197998027	18.0
5.5808	511.413537837	27.0
5.591	511.628371358	36.0
5.6013	511.844596738	37.0
5.6115	512.05801775	28.0
5.6218	512.272821469	37.0
5.632	512.48483926	30.0
5.6422	512.696162303	32.0
5.6525	512.908854461	18.0
5.6627	513.118788077	24.0
5.673	513.330081805	24.0
5.6832	513.538635128	29.0
5.6934	513.746505056	25.0
5.7037	513.955721727	27.0
5.7139	514.162224931	27.0
5.7242	514.370066024	17.0
5.7344	514.57521149	25.0
5.7446	514.779684728	24.0
5.7549	514.985482703	17.0
5.7651	515.188611551	19.0
5.7754	515.393056424	23.0
5.7856	515.59484972	25.0
5.7958	515.795981772	17.0
5.8061	515.998416914	24.0
5.8163	516.198226543	23.0
5.8266	516.399330694	19.0
5.8368	516.597826595	17.0
5.847	516.795672057	22.0
5.8573	516.994799316	14.0
5.8675	517.191343965	12.0
5.8778	517.389161982	17.0
5.888	517.584414369	15.0
5.8982	517.779026946	17.0
5.9085	517.974900374	13.0
5.9187	518.168233393	12.0
5.929	518.362818974	9.0
5.9392	518.554880847	12.0
5.9494	518.746313366	10.0
5.9597	518.938986133	7.0
5.9699	519.129160002	6.0
5.9802	519.320565965	16.0
5.9904	519.50948946	6.0
6.0006	519.697793884	11.0
6.0109	519.88731829	6.0
6.0211	520.074384631	11.0
6.0314	520.262662933	4.0
6.0416	520.448499331	18.0
6.0518	520.633726775	6.0
6.0621	520.820154265	8.0
6.0723	521.004163856	5.0
6.0826	521.189365605	5.0
6.0928	521.372165352	10.0
6.103	521.554366094	6.0
6.1133	521.737747274	8.0
6.1235	521.918750065	6.0
6.1338	522.100925532	8.0
6.144	522.280738247	8.0
6.1542	522.459961746	5.0
6.1645	522.640346393	8.0
6.1747	522.818391516	4.0
6.185	522.997590152	3.0
6.1952	523.174464646	11.0
6.2054	523.35075955	6.0
6.2157	523.528196631	1.0
6.2259	523.703332414	4.0
6.2362	523.879602863	4.0
6.2464	524.053587146	4.0
6.2566	524.227001312	2.0
6.2669	524.401538989	2.0
6.2771	524.573812973	2.0
6.2874	524.747203083	2.0
6.2976	524.918344383	2.0
6.3078	525.088924882	7.0
6.3181	525.260610533	5.0
6.3283	525.430069482	2.0
6.3386	525.600626318	5.0
6.3488	525.768971091	4.0
6.359	525.936764227	1.0
6.3693	526.105644456	4.0
6.3795	526.272334368	2.0
6.3898	526.440104227	4.0
6.4	526.60569817	3.0
6.4102	526.770749489	3.0
6.4205	526.936870138	2.0
6.4307	527.100836261	3.0
6.441	527.265864684	2.0
6.4512	527.428752746	3.0
6.4614	527.59110705	2.0
6.4717	527.754513212	1.0
6.4819	527.915800054	1.0
6.4922	528.078131836	1.0
6.5024	528.238358233	2.0
6.5126	528.398059594	4.0
6.5229	528.558795625	3.0
6.5331	528.717446965	2.0
6.5434	528.877126172	2.0
6.5536	529.034734396	4.0
6.5638	529.191826164	2.0
6.5741	529.349935695	2.0
6.5843	529.5059946	3.0
6.5946	529.663064576	0.0
6.6048	529.818097409	2.0
6.615	529.972622226	2.0
6.6253	530.128148174	0.0
6.6355	530.281657005	0.0
6.6458	530.436160386	1.0
6.656	530.588659912	3.0
6.6662	530.740659722	2.0
6.6765	530.893644306	1.0
6.6867	531.044644732	1.0
6.697	531.196623457	2.0
6.7072	531.346631071	3.0
6.7174	531.496147135	1.0
6.7277	531.64663188	2.0
6.7379	531.795164891	2.0
6.7482	531.944660214	1.0
6.7584	532.092216635	0.0
6.7686	532.239289538	0.0
6.7789	532.387315294	0.0
6.7891	532.533421207	0.0
6.7994	532.680473708	0.0
6.8096	532.82561899	0.0
6.8198	532.970288654	1.0
6.8301	533.115895601	2.0
6.8403	533.259614077	4.0
6.8506	533.404263673	0.0
6.8608	533.547037215	2.0
6.871	533.689342911	1.0
6.8813	533.832570573	0.0
6.8915	533.973940624	2.0
6.9018	534.116226579	0.0
6.912	534.256667136	1.0
6.9222	534.396647492	2.0
6.9325	534.537534749	1.0
6.9427	534.676594748	1.0
6.953	534.816555686	1.0
6.9632	534.954701379	1.0
6.9734	535.092394392	0.0
6.9837	535.230979487	1.0
6.9939	535.367767182	0.0
7.0042	535.505441094	2.0
7.0144	535.641329424	1.0
7.0246	535.77677247	0.0
7.0349	535.913093022	1.0
7.0451	536.047645543	1.0
7.0554	536.1830698	1.0
7.0656	536.316737653	2.0
7.0758	536.449967498	1.0
7.0861	536.584060509	0.0
7.0963	536.716414381	0.0
7.1066	536.849625744	1.0
7.1168	536.981109402	0.0
7.127	537.11216221	2.0
7.1373	537.24406408	0.0
7.1475	537.374255229	2.0
7.1578	537.505289858	1.0
7.168	537.634625013	3.0
7.1782	537.763536358	2.0
7.1885	537.893282891	0.0
7.1987	538.021346658	2.0
7.209	538.15024012	0.0
7.2192	538.27746188	0.0
7.2294	538.404266755	4.0
7.2397	538.531893171	3.0
7.2499	538.657864316	1.0
7.2602	538.784651601	0.0
7.2704	538.909794499	1.0
7.2806	539.034527324	2.0
7.2909	539.160068266	1.0
7.3011	539.283980985	0.0
7.3114	539.408696507	2.0
7.3216	539.531794513	1.0
7.3318	539.654489147	2.0
7.3421	539.777978692	1.0
7.3523	539.899866621	2.0
7.3626	540.022544235	1.0
7.3728	540.143630763	2.0
7.383	540.264320511	2.0
7.3933	540.38579218	2.0
7.4035	540.505688404	2.0
7.4138	540.62636141	0.0
7.424	540.745469329	1.0
7.4342	540.864186951	0.0
7.4445	540.983673717	0.0
7.4547	541.101610783	0.0
7.465	541.220311936	1.0
7.4752	541.337473577	1.0
7.4854	541.454251299	1.0
7.4957	541.571785597	2.0
7.5059	541.687795517	0.0
7.5162	541.804557039	0.0
7.5264	541.919804205	4.0
7.5366	542.034673725	2.0
7.5469	542.150287459	1.0
7.5571	542.264401724	0.0
7.5674	542.37925531	1.0
7.5776	542.492619284	1.0
7.5878	542.605611784	2.0
7.5981	542.719336337	2.0
7.6083	542.831585922	1.0
7.6186	542.944562748	1.0
7.6288	543.056074303	2.0
7.639	543.167220454	1.0
7.6493	543.279086696	3.0
7.6595	543.389502071	0.0
7.6698	543.500632804	2.0
7.68	543.61032221	0.0
7.6902	543.719652181	0.0
7.7005	543.829690477	1.0
7.7107	543.938301615	1.0
7.721	544.047616421	0.0
7.7312	544.155513452	0.0
7.7414	544.263056922	1.0
7.7517	544.371297142	1.0
7.7619	544.478133524	1.0
7.7722	544.585662075	2.0
7.7824	544.691796019	0.0
7.7926	544.79758218	0.0
7.8029	544.904053705	3.0
7.8131	545.009144332	0.0
7.8234	545.114915818	0.0
7.8336	545.219315485	0.0
7.8438	545.323373051	3.0
7.8541	545.428104783	2.0
7.8643	545.531478181	1.0
7.8746	545.635521312	2.0
7.8848	545.738215041	2.0
7.895	545.840572259	2.0
7.9053	545.943592626	1.0
7.9155	546.045276856	0.0
7.9258	546.147619875	1.0
7.936	546.248635541	1.0
7.9462	546.349320195	2.0
7.9565	546.450657163	1.0
7.9667	546.550679825	1.0
7.977	546.651350512	0.0
7.9872	546.750715536	1.0
7.9974	546.849754957	2.0
8.0077	546.949436032	1.0
8.0179	547.047824279	2.0
8.0282	547.146849961	3.0
