TL-DOS Lehrstuhlversuch
detector=R1407403
job_number=2015-11-17-004
irradiation_dose [mSv]=0.05

[BEGIN DATA]
time [sec] 	 temperature [K] 	 photoncount 
0.0	193.739416408	0.0
0.0102	194.83481795	0.0
0.0205	195.937609677	1.0
0.0307	197.02638818	1.0
0.041	198.122512184	2.0
0.0512	199.204707693	2.0
0.0614	200.283642604	1.0
0.0717	201.369856605	2.0
0.0819	202.442268038	2.0
0.0922	203.52191455	1.0
0.1024	204.587841947	1.0
0.1126	205.650557761	0.0
0.1229	206.720443243	2.0
0.1331	207.776733643	0.0
0.1434	208.840150362	1.0
0.1536	209.890054197	4.0
0.1638	210.936794728	0.0
0.1741	211.990597149	1.0
0.1843	213.031008856	0.0
0.1946	214.078439755	2.0
0.2048	215.112560904	2.0
0.215	216.1435663	2.0
0.2253	217.181527429	1.0
0.2355	218.206299139	3.0
0.2458	219.237984526	2.0
0.256	220.256560241	1.0
0.2662	221.272067041	0.0
0.2765	222.294425011	0.0
0.2867	223.303791834	0.0
0.297	224.319968402	1.0
0.3072	225.32323237	0.0
0.3174	226.323473558	0.0
0.3277	227.330462924	0.0
0.3379	228.324656433	0.0
0.3482	229.32555732	1.0
0.3584	230.313739715	0.0
0.3686	231.29894477	0.0
0.3789	232.290796561	0.0
0.3891	233.270044849	0.0
0.3994	234.255899686	0.0
0.4096	235.229227222	0.0
0.4198	236.199622175	0.0
0.4301	237.176563947	0.0
0.4403	238.141091678	0.0
0.4506	239.112126645	0.0
0.4608	240.070822628	0.0
0.471	241.026630112	0.0
0.4813	241.988886	1.0
0.4915	242.938914461	0.0
0.5018	243.895352338	0.0
0.512	244.839636717	0.0
0.5222	245.781076017	1.0
0.5325	246.728866787	1.0
0.5427	247.664613938	1.0
0.553	248.606674156	0.0
0.5632	249.536763573	0.0
0.5734	250.46405068	0.0
0.5837	251.397593779	0.0
0.5939	252.319274304	0.0
0.6042	253.247172995	0.0
0.6144	254.163280836	1.0
0.6246	255.076628493	0.0
0.6349	255.996138098	0.0
0.6451	256.903963454	0.0
0.6554	257.817913501	0.0
0.6656	258.720249945	0.0
0.6758	259.619867697	0.0
0.6861	260.525554767	0.0
0.6963	261.419733232	1.0
0.7066	262.319944319	0.0
0.7168	263.208716383	1.0
0.727	264.094810625	1.0
0.7373	264.986882948	2.0
0.7475	265.867619669	0.0
0.7578	266.754298326	1.0
0.768	267.629709918	0.0
0.7782	268.502483942	1.0
0.7885	269.381146181	1.0
0.7987	270.24864322	0.0
0.809	271.121992874	0.0
0.8192	271.984244835	0.0
0.8294	272.843898877	0.0
0.8397	273.70935262	1.0
0.8499	274.563809004	0.0
0.8602	275.424030023	0.0
0.8704	276.273320175	1.0
0.8806	277.120051461	0.0
0.8909	277.972495265	0.0
0.9011	278.814107027	1.0
0.9114	279.661396767	0.0
0.9216	280.497919959	0.0
0.9318	281.331922751	0.0
0.9421	282.171552187	0.0
0.9523	283.000512414	0.0
0.9626	283.835065265	1.0
0.9728	284.659013416	0.0
0.983	285.480479056	0.0
0.9933	286.307486756	0.0
1.0035	287.123985633	0.0
1.0138	287.945993062	0.0
1.024	288.757555207	0.0
1.0342	289.566672158	0.0
1.0445	290.381247859	1.0
1.0547	291.18547271	0.0
1.065	291.995123307	0.0
1.0752	292.794485638	0.0
1.0854	293.591439533	0.0
1.0957	294.393770119	0.0
1.1059	295.185905454	1.0
1.1162	295.983384973	0.0
1.1264	296.770730884	0.0
1.1366	297.555704563	0.0
1.1469	298.345974109	1.0
1.1571	299.126201665	2.0
1.1674	299.911693066	2.0
1.1776	300.687203194	0.0
1.1878	301.460376751	1.0
1.1981	302.238766564	1.0
1.2083	303.007265344	0.0
1.2186	303.78094884	0.0
1.2288	304.544801106	1.0
1.239	305.306351926	0.0
1.2493	306.073040589	0.0
1.2595	306.829986905	0.0
1.2698	307.592039999	0.0
1.28	308.34440965	1.0
1.2902	309.094512452	0.0
1.3005	309.849675862	0.0
1.3107	310.595243377	0.0
1.321	311.345840902	0.0
1.3312	312.086900552	1.0
1.3414	312.825727428	1.0
1.3517	313.569538838	0.0
1.3619	314.303898604	0.0
1.3722	315.043212767	0.0
1.3824	315.773132432	0.0
1.3926	316.500852887	1.0
1.4029	317.233482947	0.0
1.4131	317.956803445	0.0
1.4234	318.685003862	0.0
1.4336	319.403951004	0.0
1.4438	320.120731997	0.0
1.4541	320.84234879	0.0
1.4643	321.554795967	1.0
1.4746	322.272049707	0.0
1.4848	322.980189271	1.0
1.495	323.686195248	0.0
1.5053	324.396964332	1.0
1.5155	325.098701642	2.0
1.5258	325.805173259	0.0
1.536	326.50266771	0.0
1.5462	327.198060647	0.0
1.5565	327.89814509	2.0
1.5667	328.589333528	0.0
1.577	329.285185106	0.0
1.5872	329.972194467	1.0
1.5974	330.657133905	0.0
1.6077	331.346694323	1.0
1.6179	332.027492466	1.0
1.6282	332.71288365	0.0
1.6384	333.389565537	0.0
1.6486	334.064208619	0.0
1.6589	334.743403214	0.0
1.6691	335.413967255	1.0
1.6794	336.089055291	1.0
1.6896	336.755564953	0.0
1.6998	337.420066457	1.0
1.7101	338.089051056	2.0
1.7203	338.749534837	2.0
1.7306	339.414474607	0.0
1.7408	340.070964958	1.0
1.751	340.725477339	0.0
1.7613	341.384405421	2.0
1.7715	342.034960476	1.0
1.7818	342.689904534	0.0
1.792	343.336526189	0.0
1.8022	343.981199608	0.0
1.8125	344.630222349	0.0
1.8227	345.27099793	0.0
1.833	345.916096537	0.0
1.8432	346.552997847	1.0
1.8534	347.187980208	1.0
1.8637	347.82724651	1.0
1.8739	348.458389628	1.0
1.8842	349.093790785	2.0
1.8944	349.721117872	3.0
1.9046	350.346554856	1.0
1.9149	350.976211383	0.0
1.9251	351.597866837	0.0
1.9354	352.223716322	4.0
1.9456	352.84161311	1.0
1.9558	353.457648208	2.0
1.9661	354.077839419	1.0
1.9763	354.690149833	0.0
1.9866	355.306591231	1.0
1.9968	355.915199481	0.0
2.007	356.521974027	0.0
2.0173	357.132842209	0.0
2.0275	357.735948062	1.0
2.0378	358.3431228	2.0
2.048	358.942582143	1.0
2.0582	359.540235346	5.0
2.0685	360.141920647	0.0
2.0787	360.735960308	2.0
2.089	361.334007687	0.0
2.0992	361.924455653	0.0
2.1094	362.51312463	3.0
2.1197	363.105765093	1.0
2.1299	363.690874848	3.0
2.1402	364.279932076	3.0
2.1504	364.861504128	2.0
2.1606	365.441323934	0.0
2.1709	366.025055525	1.0
2.1811	366.601369613	2.0
2.1914	367.181571835	6.0
2.2016	367.754401401	2.0
2.2118	368.325505062	4.0
2.2221	368.900461703	0.0
2.2323	369.468112346	3.0
2.2426	370.039592673	1.0
2.2528	370.603811174	3.0
2.263	371.166329716	1.0
2.2733	371.732643318	3.0
2.2835	372.291760748	2.0
2.2938	372.854650293	1.0
2.304	373.410387175	4.0
2.3142	373.964449653	0.0
2.3245	374.522250141	1.0
2.3347	375.072962635	2.0
2.345	375.627390538	2.0
2.3552	376.174773302	2.0
2.3654	376.720506832	3.0
2.3757	377.26992218	5.0
2.3859	377.812356084	3.0
2.3962	378.358449546	3.0
2.4064	378.897603775	1.0
2.4166	379.435133561	2.0
2.4269	379.97628982	2.0
2.4371	380.510569582	3.0
2.4474	381.04845389	5.0
2.4576	381.579503279	2.0
2.4678	382.108952645	6.0
2.4781	382.641973968	9.0
2.4883	383.168222166	3.0
2.4986	383.698020725	4.0
2.5088	384.22108711	6.0
2.519	384.742577524	10.0
2.5293	385.2675862	4.0
2.5395	385.785923568	6.0
2.5498	386.307757927	4.0
2.56	386.822961313	7.0
2.5702	387.336612418	5.0
2.5805	387.853728898	8.0
2.5907	388.364274356	7.0
2.601	388.878264235	3.0
2.6112	389.385722823	6.0
2.6214	389.891652464	12.0
2.6317	390.400995387	8.0
2.6419	390.903866067	5.0
2.6522	391.410129389	6.0
2.6624	391.909959602	7.0
2.6726	392.408283853	6.0
2.6829	392.909970074	2.0
2.6931	393.405281347	11.0
2.7034	393.903934262	8.0
2.7136	394.396250774	10.0
2.7238	394.887083962	10.0
2.7341	395.381228581	5.0
2.7443	395.869094083	10.0
2.7546	396.360250996	4.0
2.7648	396.845166756	15.0
2.775	397.32862149	7.0
2.7853	397.815337877	8.0
2.7955	398.295869538	8.0
2.8058	398.77964313	7.0
2.816	399.25726939	9.0
2.8262	399.733456588	7.0
2.8365	400.212856408	6.0
2.8467	400.686164473	15.0
2.857	401.162665735	5.0
2.8672	401.633112075	9.0
2.8774	402.102140985	12.0
2.8877	402.574334224	13.0
2.8979	403.040527282	12.0
2.9082	403.509865535	8.0
2.9184	403.973239887	12.0
2.9286	404.435218117	7.0
2.9389	404.900313107	11.0
2.9491	405.359498115	12.0
2.9594	405.821781038	6.0
2.9696	406.278189712	7.0
2.9798	406.73322325	5.0
2.9901	407.191326697	12.0
3.0003	407.643609002	8.0
3.0106	408.098942654	4.0
3.0208	408.548490361	6.0
3.031	408.996683605	7.0
3.0413	409.447900608	11.0
3.0515	409.893383976	12.0
3.0618	410.341872822	9.0
3.072	410.7846627	9.0
3.0822	411.226118476	8.0
3.0925	411.670552556	5.0
3.1027	412.109339192	9.0
3.113	412.551086126	9.0
3.1232	412.987219762	6.0
3.1334	413.42203935	8.0
3.1437	413.859792472	12.0
3.1539	414.291983045	7.0
3.1642	414.727089415	3.0
3.1744	415.156666869	5.0
3.1846	415.584950029	10.0
3.1949	416.016122623	6.0
3.2051	416.441816289	7.0
3.2154	416.870381919	3.0
3.2256	417.293501747	7.0
3.2358	417.715346737	8.0
3.2461	418.140037727	9.0
3.2563	418.559332149	2.0
3.2666	418.981455363	9.0
3.2768	419.398214639	8.0
3.287	419.813718241	7.0
3.2973	420.232025061	5.0
3.3075	420.645016437	3.0
3.3178	421.060794081	8.0
3.328	421.47128842	5.0
3.3382	421.880545961	5.0
3.3485	422.29256458	10.0
3.3587	422.69934766	4.0
3.369	423.108875124	5.0
3.3792	423.513198704	5.0
3.3894	423.916304078	3.0
3.3997	424.322129024	4.0
3.4099	424.722797135	2.0
3.4202	425.126168374	5.0
3.4304	425.524413957	4.0
3.4406	425.921459647	5.0
3.4509	426.321184027	4.0
3.4611	426.715829091	7.0
3.4714	427.113136649	3.0
3.4816	427.505395602	5.0
3.4918	427.8964727	2.0
3.5021	428.29018822	5.0
3.5123	428.67890078	3.0
3.5226	429.070235809	11.0
3.5328	429.456598127	4.0
3.543	429.841796355	13.0
3.5533	430.229593344	4.0
3.5635	430.612462579	7.0
3.5738	430.997914862	9.0
3.584	431.378469185	5.0
3.5942	431.757876919	4.0
3.6045	432.139844347	8.0
3.6147	432.516958097	7.0
3.625	432.896616066	7.0
3.6352	433.271449703	7.0
3.6454	433.645153988	8.0
3.6557	434.021379487	9.0
3.6659	434.392824273	5.0
3.6762	434.76677503	7.0
3.6864	435.135973978	13.0
3.6966	435.50406055	10.0
3.7069	435.874630437	15.0
3.7171	436.240491476	9.0
3.7274	436.608820816	9.0
3.7376	436.972469779	11.0
3.7478	437.335023086	14.0
3.7581	437.700022379	11.0
3.7683	438.060383609	8.0
3.7786	438.423176036	11.0
3.7888	438.781358443	6.0
3.799	439.138461665	11.0
3.8093	439.497974103	4.0
3.8195	439.852918201	5.0
3.8298	440.210256948	5.0
3.84	440.563054975	9.0
3.8502	440.914790041	5.0
3.8605	441.268898105	9.0
3.8707	441.618506503	5.0
3.881	441.970473553	9.0
3.8912	442.317968141	12.0
3.9014	442.664415747	5.0
3.9117	443.01320068	8.0
3.9219	443.357553587	12.0
3.9322	443.704229689	13.0
3.9424	444.046500563	10.0
3.9526	444.387740193	12.0
3.9629	444.731282013	6.0
3.9731	445.070458433	7.0
3.9834	445.411923124	11.0
3.9936	445.749048808	11.0
4.0038	446.085158751	7.0
4.0141	446.423536277	11.0
4.0243	446.757614024	6.0
4.0346	447.093945645	11.0
4.0448	447.426003485	7.0
4.055	447.757060852	8.0
4.0653	448.090351716	10.0
4.0755	448.419407437	10.0
4.0858	448.75068315	10.0
4.096	449.077749329	6.0
4.1062	449.403830074	7.0
4.1165	449.73211074	11.0
4.1267	450.056219929	10.0
4.137	450.382515737	8.0
4.1472	450.704665291	6.0
4.1574	451.025844225	10.0
4.1677	451.349190009	5.0
4.1779	451.668427025	4.0
4.1882	451.989817789	11.0
4.1984	452.307124627	11.0
4.2086	452.623475437	8.0
4.2189	452.941960523	8.0
4.2291	453.256398606	7.0
4.2394	453.572958062	5.0
4.2496	453.885494982	10.0
4.2598	454.197090246	5.0
4.2701	454.510787703	14.0
4.2803	454.820498993	11.0
4.2906	455.132299766	9.0
4.3008	455.440138474	10.0
4.311	455.747049679	3.0
4.3213	456.056031477	11.0
4.3315	456.36108703	10.0
4.3418	456.668200656	5.0
4.352	456.971411775	9.0
4.3622	457.273709336	11.0
4.3725	457.578046363	10.0
4.3827	457.878516166	8.0
4.393	458.181013104	5.0
4.4032	458.4796662	7.0
4.4134	458.777419471	7.0
4.4237	459.077181549	3.0
4.4339	459.373134538	4.0
4.4442	459.671084188	9.0
4.4544	459.96524778	4.0
4.4646	460.258525072	6.0
4.4749	460.553780975	8.0
4.4851	460.845285048	7.0
4.4954	461.138755768	2.0
4.5056	461.428497343	9.0
4.5158	461.717365943	6.0
4.5261	462.008183409	7.0
4.5363	462.295305445	5.0
4.5466	462.584364565	8.0
4.5568	462.869750598	6.0
4.567	463.154276777	3.0
4.5773	463.440722528	5.0
4.5875	463.7235284	9.0
4.5978	464.008242236	9.0
4.608	464.289338202	7.0
4.6182	464.56958724	4.0
4.6285	464.851726993	9.0
4.6387	465.130281583	6.0
4.649	465.410715457	8.0
4.6592	465.687585845	4.0
4.6694	465.963622038	7.0
4.6797	466.241520523	4.0
4.6899	466.515887739	7.0
4.7002	466.792105989	1.0
4.7104	467.064814321	4.0
4.7206	467.336700997	7.0
4.7309	467.610421971	16.0
4.7411	467.880664761	8.0
4.7514	468.152730757	4.0
4.7616	468.421339599	7.0
4.7718	468.689139137	3.0
4.7821	468.958745399	8.0
4.7923	469.224925762	5.0
4.8026	469.492901924	10.0
4.8128	469.757472902	4.0
4.823	470.021246742	13.0
4.8333	470.286800145	6.0
4.8435	470.54897915	8.0
4.8538	470.812926959	8.0
4.864	471.073520771	6.0
4.8742	471.333329429	8.0
4.8845	471.594890899	11.0
4.8947	471.853128696	9.0
4.905	472.113108707	9.0
4.9152	472.369785142	9.0
4.9254	472.625688223	12.0
4.9357	472.883317769	5.0
4.9459	473.137673604	12.0
4.9562	473.393745464	7.0
4.9664	473.646563408	7.0
4.9766	473.898619625	8.0
4.9869	474.152376353	7.0
4.9971	474.402908582	8.0
5.0074	474.65513104	7.0
5.0176	474.904148497	5.0
5.0278	475.152415677	12.0
5.0381	475.402357804	6.0
5.0483	475.649123906	2.0
5.0586	475.897554828	6.0
5.0688	476.142828928	7.0
5.079	476.38736403	8.0
5.0893	476.633548901	3.0
5.0995	476.876605489	6.0
5.1098	477.121301872	8.0
5.12	477.362888887	4.0
5.1302	477.603748013	2.0
5.1405	477.846232108	6.0
5.1507	478.085634947	6.0
5.161	478.326652929	7.0
5.1712	478.564608286	9.0
5.1814	478.801846695	6.0
5.1917	479.040685646	9.0
5.2019	479.27648966	5.0
5.2122	479.513884538	9.0
5.2224	479.748262829	4.0
5.2326	479.981934951	2.0
5.2429	480.217183553	5.0
5.2531	480.449442842	8.0
5.2634	480.68326908	14.0
5.2736	480.914124077	6.0
5.2838	481.144283521	6.0
5.2941	481.375995747	5.0
5.3043	481.604763596	6.0
5.3146	481.835074839	1.0
5.3248	482.062459507	7.0
5.335	482.289159078	5.0
5.3453	482.517388088	4.0
5.3555	482.742716983	10.0
5.3658	482.969566071	4.0
5.376	483.193532577	8.0
5.3862	483.416824285	7.0
5.3965	483.641622441	7.0
5.4067	483.863564077	4.0
5.417	484.087003055	7.0
5.4272	484.307602783	4.0
5.4374	484.527537856	2.0
5.4477	484.748956733	7.0
5.4579	484.96756203	2.0
5.4682	485.187642159	6.0
5.4784	485.40492572	5.0
5.4886	485.621554618	4.0
5.4989	485.839645014	8.0
5.5091	486.054964125	2.0
5.5194	486.271735898	7.0
5.5296	486.485753143	3.0
5.5398	486.699125565	7.0
5.5501	486.913937515	3.0
5.5603	487.12601984	8.0
5.5706	487.33953299	6.0
5.5808	487.550333019	5.0
5.591	487.760497919	5.0
5.6013	487.972080707	7.0
5.6115	488.180974903	7.0
5.6218	488.391278415	5.0
5.632	488.598909591	7.0
5.6422	488.805915185	1.0
5.6525	489.014317354	2.0
5.6627	489.220071346	6.0
5.673	489.427213469	2.0
5.6832	489.631723428	10.0
5.6934	489.835617209	4.0
5.7037	490.04088657	5.0
5.7139	490.243547565	5.0
5.7242	490.447575822	9.0
5.7344	490.649011483	5.0
5.7446	490.84984023	5.0
5.7549	491.052023878	3.0
5.7651	491.25163837	11.0
5.7754	491.452599571	11.0
5.7856	491.651007149	5.0
5.7958	491.848816936	4.0
5.8061	492.047961257	7.0
5.8163	492.244575042	5.0
5.8266	492.442515293	3.0
5.8368	492.637940308	3.0
5.847	492.832776517	8.0
5.8573	493.0289272	7.0
5.8675	493.222585387	4.0
5.8778	493.417550099	3.0
5.888	493.610037386	4.0
5.8982	493.801944719	5.0
5.9085	493.995146765	4.0
5.9187	494.185893784	5.0
5.929	494.377927688	8.0
5.9392	494.567521409	6.0
5.9494	494.756543893	4.0
5.9597	494.946841628	6.0
5.9699	495.134721241	6.0
5.9802	495.323868394	14.0
5.9904	495.510612046	3.0
6.0006	495.696793049	7.0
6.0109	495.884230131	7.0
6.0211	496.069285443	7.0
6.0314	496.25558924	4.0
6.0416	496.439525666	3.0
6.0518	496.622907901	9.0
6.0621	496.807527335	8.0
6.0723	496.989800801	9.0
6.0826	497.173303985	4.0
6.0928	497.354475385	7.0
6.103	497.535100926	5.0
6.1133	497.716945067	5.0
6.1235	497.896478506	6.0
6.1338	498.077223176	3.0
6.144	498.255671117	11.0
6.1542	498.433581403	5.0
6.1645	498.61269197	8.0
6.1747	498.789526571	5.0
6.185	498.967554196	8.0
6.1952	499.143319617	7.0
6.2054	499.318555465	7.0
6.2157	499.494973551	14.0
6.2259	499.669149885	6.0
6.2362	499.844501309	5.0
6.2464	500.017624534	1.0
6.2566	500.190226149	2.0
6.2669	500.363992229	5.0
6.2771	500.535550256	3.0
6.2874	500.708265708	5.0
6.2976	500.878786457	4.0
6.3078	501.048793436	6.0
6.3181	501.219947376	3.0
6.3283	501.388926456	6.0
6.3386	501.559045562	4.0
6.3488	501.727002957	8.0
6.359	501.894454305	12.0
6.3693	502.063035372	7.0
6.3795	502.229474273	10.0
6.3898	502.397036062	7.0
6.4	502.562468636	5.0
6.4102	502.72740277	5.0
6.4205	502.893449642	4.0
6.4307	503.057386548	3.0
6.441	503.222429463	2.0
6.4512	503.385375171	3.0
6.4614	503.547829932	8.0
6.4717	503.711380703	5.0
6.4819	503.872853226	2.0
6.4922	504.035415133	3.0
6.5024	504.195911358	3.0
6.5126	504.355924017	8.0
6.5229	504.517016209	4.0
6.5331	504.676061396	6.0
6.5434	504.83617959	4.0
6.5536	504.994263154	6.0
6.5638	505.151870421	2.0
6.5741	505.310540994	4.0
6.5843	505.467195333	3.0
6.5946	505.624906549	6.0
6.6048	505.780613721	4.0
6.615	505.935851756	3.0
6.6253	506.092137112	3.0
6.6355	506.246436544	5.0
6.6458	506.401776964	5.0
6.656	506.555143467	2.0
6.6662	506.708047885	3.0
6.6765	506.861983881	4.0
6.6867	507.013963805	4.0
6.697	507.16696907	4.0
6.7072	507.31803009	6.0
6.7174	507.468635971	6.0
6.7277	507.620257922	4.0
6.7379	507.769953207	5.0
6.7482	507.920658419	3.0
6.7584	508.069448613	7.0
6.7686	508.21779051	2.0
6.7789	508.367133204	1.0
6.7891	508.514578193	2.0
6.7994	508.663017928	1.0
6.8096	508.809571433	3.0
6.8198	508.955683379	5.0
6.8301	509.102781078	3.0
6.8403	509.248009599	2.0
6.8506	509.394217912	0.0
6.8608	509.53856835	6.0
6.871	509.682483868	8.0
6.8813	509.827370319	1.0
6.8915	509.970415692	2.0
6.9018	510.114426128	4.0
6.912	510.256606617	5.0
6.9222	510.398358723	5.0
6.9325	510.541067168	3.0
6.9427	510.68196221	3.0
6.953	510.823807808	4.0
6.9632	510.963850968	3.0
6.9734	511.103472185	2.0
6.9837	511.244035364	5.0
6.9939	511.3828124	2.0
7.0042	511.522525703	4.0
7.0144	511.660463663	1.0
7.0246	511.797986023	4.0
7.0349	511.936436185	1.0
7.0451	512.073127054	6.0
7.0554	512.210740116	6.0
7.0656	512.346604523	2.0
7.0758	512.482059577	2.0
7.0861	512.618428486	2.0
7.0963	512.753064549	2.0
7.1066	512.888608941	2.0
7.1168	513.022430965	4.0
7.127	513.15584979	1.0
7.1373	513.290168732	4.0
7.1475	513.422780878	3.0
7.1578	513.556287698	5.0
7.168	513.688098042	1.0
7.1782	513.819511247	5.0
7.1885	513.951811039	2.0
7.1987	514.082429692	0.0
7.209	514.21392957	3.0
7.2192	514.343758473	4.0
7.2294	514.473196209	3.0
7.2397	514.603507203	4.0
7.2499	514.73216233	4.0
7.2602	514.861685435	0.0
7.2704	514.989562684	1.0
7.2806	515.117054646	0.0
7.2909	515.24540674	2.0
7.3011	515.372127857	0.0
7.3114	515.499703906	3.0
7.3216	515.625658839	1.0
7.3318	515.751234278	3.0
7.3421	515.877656917	2.0
7.3523	516.002473099	0.0
7.3626	516.128131359	0.0
7.3728	516.252192874	0.0
7.383	516.375880599	1.0
7.3933	516.500402789	2.0
7.4035	516.62334267	1.0
7.4138	516.747111972	2.0
7.424	516.869308532	5.0
7.4342	516.99113692	2.0
7.4445	517.113787229	0.0
7.4547	517.234879016	0.0
7.465	517.356787755	1.0
7.4752	517.477147394	3.0
7.4854	517.597144395	3.0
7.4957	517.717950963	0.0
7.5059	517.837222437	0.0
7.5162	517.957298582	1.0
7.5264	518.075848913	0.0
7.5366	518.19404206	2.0
7.5469	518.313032602	1.0
7.5571	518.430511126	2.0
7.5674	518.548782225	2.0
7.5776	518.665550448	1.0
7.5878	518.781966855	2.0
7.5981	518.899168671	1.0
7.6083	519.014881199	1.0
7.6186	519.131374387	1.0
7.6288	519.246387291	1.0
7.639	519.361053667	1.0
7.6493	519.476493646	0.0
7.6595	519.590466724	0.0
7.6698	519.705208728	2.0
7.68	519.818492699	0.0
7.6902	519.931435352	1.0
7.7005	520.045139979	1.0
7.7107	520.157399756	0.0
7.721	520.2704169	0.0
7.7312	520.381997929	0.0
7.7414	520.493242771	2.0
7.7517	520.605238132	2.0
7.7619	520.715810363	2.0
7.7722	520.827128575	3.0
7.7824	520.937032262	1.0
7.7926	521.046604815	2.0
7.8029	521.156916605	0.0
7.8131	521.265826659	1.0
7.8234	521.375471479	1.0
7.8336	521.483723038	2.0
7.8438	521.591648441	0.0
7.8541	521.700301968	1.0
7.8643	521.80757483	1.0
7.8746	521.915571414	1.0
7.8848	522.022195681	0.0
7.895	522.128498694	0.0
7.9053	522.235518887	2.0
7.9155	522.341179169	1.0
7.9258	522.447552293	0.0
7.936	522.55257373	2.0
7.9462	522.657278742	1.0
7.9565	522.762690153	1.0
7.9667	522.866762096	1.0
7.977	522.971536166	1.0
7.9872	523.074978867	4.0
7.9974	523.178109901	2.0
8.0077	523.281936713	2.0
8.0179	523.384444194	0.0
8.0282	523.487643247	0.0
8.0384	523.589530945	0.0
8.0486	523.691111661	2.0
8.0589	523.793377696	1.0
8.0691	523.894344232	0.0
8.0794	523.995991945	1.0
8.0896	524.096348015	1.0
8.0998	524.196401718	0.0
8.1101	524.297130439	1.0
8.1203	524.396579195	0.0
8.1306	524.496698887	2.0
8.1408	524.595546354	2.0
8.151	524.694095999	0.0
8.1613	524.793310514	0.0
