TL-DOS Lehrstuhlversuch
detector=R1408306
job_number=2015-10-22-005
irradiation_dose [mSv]=unknown

[BEGIN DATA]
time [sec] 	 temperature [K] 	 photoncount 
0.0	149.054889511	0.0
0.0102	150.466176197	0.0
0.0205	151.886347285	1.0
0.0307	153.287843649	0.0
0.041	154.698162783	1.0
0.0512	156.089936743	0.0
0.0614	157.47689837	1.0
0.0717	158.872591267	1.0
0.0819	160.249931319	3.0
0.0922	161.635942071	0.0
0.1024	163.003727294	2.0
0.1126	164.366783131	1.0
0.1229	165.738419745	0.0
0.1331	167.092019845	0.0
0.1434	168.454141196	1.0
0.1536	169.798351156	1.0
0.1638	171.137913245	1.0
0.1741	172.485908212	0.0
0.1843	173.816177545	1.0
0.1946	175.154821255	1.0
0.2048	176.475862296	2.0
0.215	177.792335577	2.0
0.2253	179.117096387	2.0
0.2355	180.424437083	1.0
0.2458	181.740007815	0.0
0.256	183.038279278	0.0
0.2662	184.332061713	0.0
0.2765	185.633988832	0.0
0.2867	186.91879609	0.0
0.297	188.211691532	0.0
0.3072	189.487585877	1.0
0.3174	190.759068566	0.0
0.3277	192.038555557	1.0
0.3379	193.301217767	0.0
0.3482	194.571828751	1.0
0.3584	195.825731671	0.0
0.3686	197.075298975	1.0
0.3789	198.332732618	0.0
0.3891	199.573631473	0.0
0.3994	200.822342097	0.0
0.4096	202.054632639	0.0
0.4198	203.282662293	0.0
0.4301	204.518422701	0.0
0.4403	205.737933317	0.0
0.4506	206.965121057	1.0
0.4608	208.176171733	0.0
0.471	209.383034962	0.0
0.4813	210.597495698	0.0
0.4915	211.795986724	1.0
0.5018	213.00202255	1.0
0.512	214.192199452	0.0
0.5222	215.378261083	0.0
0.5325	216.571789268	0.0
0.5427	217.749622999	0.0
0.553	218.934871489	1.0
0.5632	220.104534399	0.0
0.5734	221.270152969	0.0
0.5837	222.4431094	0.0
0.5939	223.600641888	0.0
0.6042	224.765461332	0.0
0.6144	225.914963831	0.0
0.6246	227.0604917	0.0
0.6349	228.213230953	0.0
0.6451	229.350812111	0.0
0.6554	230.495554627	0.0
0.6656	231.625244202	0.0
0.6758	232.751027653	0.0
0.6861	233.883898193	0.0
0.6963	235.001871904	1.0
0.7066	236.12688354	0.0
0.7168	237.237101688	0.0
0.727	238.343481039	2.0
0.7373	239.456825324	1.0
0.7475	240.555529545	0.0
0.7578	241.661150382	0.0
0.768	242.752232715	0.0
0.7782	243.839542416	0.0
0.7885	244.933697004	0.0
0.7987	246.013463863	0.0
0.809	247.100028125	0.0
0.8192	248.172304469	0.0
0.8294	249.240873207	0.0
0.8397	250.316168851	0.0
0.8499	251.377324756	0.0
0.8602	252.445160903	0.0
0.8704	253.498955399	0.0
0.8806	254.549106194	1.0
0.8909	255.60586795	0.0
0.9011	256.648733681	0.0
0.9114	257.698164512	1.0
0.9216	258.733795715	0.0
0.9318	259.76584602	0.0
0.9421	260.80439334	0.0
0.9523	261.829284147	0.0
0.9626	262.860626898	0.0
0.9728	263.878407873	1.0
0.983	264.89266967	0.0
0.9933	265.913316499	0.0
1.0035	266.920542199	0.0
1.0138	267.934108638	2.0
1.024	268.934347052	0.0
1.0342	269.931126945	2.0
1.0445	270.934181818	2.0
1.0547	271.924046889	0.0
1.065	272.920143409	0.0
1.0752	273.903141628	0.0
1.0854	274.882740937	0.0
1.0957	275.868507069	0.0
1.1059	276.841310741	0.0
1.1162	277.820238456	0.0
1.1264	278.786293633	1.0
1.1366	279.749008484	1.0
1.1469	280.717783866	0.0
1.1571	281.67382021	1.0
1.1674	282.635875042	0.0
1.1776	283.585279209	0.0
1.1878	284.531400624	0.0
1.1981	285.48347811	2.0
1.2083	286.42303613	0.0
1.2186	287.368508902	0.0
1.2288	288.301549057	1.0
1.239	289.231363042	0.0
1.2493	290.167030438	1.0
1.2595	291.090394155	1.0
1.2698	292.019570676	1.0
1.28	292.936528871	0.0
1.2902	293.850316502	1.0
1.3005	294.769856655	1.0
1.3107	295.677305195	2.0
1.321	296.59046635	0.0
1.3312	297.491619774	2.0
1.3414	298.389657283	0.0
1.3517	299.293348162	0.0
1.3619	300.185155841	0.0
1.3722	301.082577672	0.0
1.3824	301.968198738	1.0
1.3926	302.850757595	1.0
1.4029	303.73887238	0.0
1.4131	304.615308785	0.0
1.4234	305.497262576	1.0
1.4336	306.367619001	0.0
1.4438	307.234965997	2.0
1.4541	308.10777316	0.0
1.4643	308.969103231	5.0
1.4746	309.835855591	0.0
1.4848	310.691210477	1.0
1.495	311.543607806	1.0
1.5053	312.40137119	2.0
1.5155	313.247855302	2.0
1.5258	314.099668243	0.0
1.536	314.940280159	1.0
1.5462	315.777985494	0.0
1.5565	316.620964394	1.0
1.5667	317.452858433	4.0
1.577	318.289989453	1.0
1.5872	319.11611251	0.0
1.5974	319.939379083	4.0
1.6077	320.767828326	0.0
1.6179	321.585383768	1.0
1.6282	322.408085926	0.0
1.6384	323.219969854	2.0
1.6486	324.029046534	3.0
1.6589	324.843216555	5.0
1.6691	325.64668054	2.0
1.6794	326.455202533	4.0
1.6896	327.25309276	1.0
1.6998	328.048224125	2.0
1.7101	328.848361041	5.0
1.7203	329.637976452	4.0
1.7306	330.432562689	2.0
1.7408	331.216700412	4.0
1.751	331.998126824	5.0
1.7613	332.784472511	4.0
1.7715	333.560478043	5.0
1.7818	334.341368724	4.0
1.792	335.111990981	5.0
1.8022	335.879948661	6.0
1.8125	336.652740825	7.0
1.8227	337.415371059	2.0
1.833	338.182802241	7.0
1.8432	338.940141987	8.0
1.8534	339.694863081	11.0
1.8637	340.454335334	9.0
1.8739	341.203820807	13.0
1.8842	341.958024479	6.0
1.8944	342.702310652	4.0
1.9046	343.444023309	3.0
1.9149	344.190405232	8.0
1.9251	344.926972509	7.0
1.9354	345.668176662	11.0
1.9456	346.399634254	15.0
1.9558	347.128562687	9.0
1.9661	347.862079907	7.0
1.9763	348.585951648	5.0
1.9866	349.314380341	15.0
1.9968	350.033230467	9.0
2.007	350.749595028	14.0
2.0173	351.470469282	19.0
2.0275	352.181864307	13.0
2.0378	352.897737741	16.0
2.048	353.604197704	17.0
2.0582	354.308214943	22.0
2.0685	355.016664147	28.0
2.0787	355.715797505	35.0
2.089	356.419332083	27.0
2.0992	357.113615442	31.0
2.1094	357.805498179	24.0
2.1197	358.501736491	32.0
2.1299	359.188819527	25.0
2.1402	359.880227922	33.0
2.1504	360.562544553	40.0
2.1606	361.24250194	32.0
2.1709	361.926739828	31.0
2.1811	362.601980242	29.0
2.1914	363.281471462	33.0
2.2016	363.952027625	34.0
2.2118	364.620265208	36.0
2.2221	365.292709513	46.0
2.2323	365.956311425	66.0
2.2426	366.624090876	52.0
2.2528	367.283089275	45.0
2.263	367.939809057	70.0
2.2733	368.600663054	58.0
2.2835	369.252827066	72.0
2.2938	369.909096614	61.0
2.304	370.556736459	63.0
2.3142	371.202136963	59.0
2.3245	371.851600424	81.0
2.3347	372.49252368	67.0
2.345	373.137481709	63.0
2.3552	373.773958779	73.0
2.3654	374.408235104	107.0
2.3757	375.046504356	88.0
2.3859	375.676380605	94.0
2.3962	376.310222081	109.0
2.4064	376.935728777	117.0
2.4166	377.559072661	121.0
2.4269	378.18634065	129.0
2.4371	378.805360297	119.0
2.4474	379.428276827	126.0
2.4576	380.043002236	131.0
2.4678	380.65560211	140.0
2.4781	381.272058454	153.0
2.4883	381.880408625	150.0
2.4986	382.492588513	142.0
2.5088	383.096718461	164.0
2.519	383.698759512	160.0
2.5293	384.304590561	168.0
2.5395	384.902455156	138.0
2.5498	385.504083459	195.0
2.56	386.097800571	169.0
2.5702	386.68946479	203.0
2.5805	387.284853683	211.0
2.5907	387.872413433	194.0
2.601	388.463672018	185.0
2.6112	389.047155771	187.0
2.6214	389.628622015	218.0
2.6317	390.213748734	224.0
2.6419	390.791181253	253.0
2.6522	391.372248854	239.0
2.6624	391.945675631	257.0
2.6726	392.517119672	315.0
2.6829	393.092161097	292.0
2.6931	393.659640939	281.0
2.7034	394.230693209	268.0
2.7136	394.794236353	331.0
2.7238	395.355830935	288.0
2.7341	395.920960896	311.0
2.7443	396.478659607	293.0
2.7546	397.039869171	297.0
2.7648	397.593699037	324.0
2.775	398.145613927	320.0
2.7853	398.701003259	336.0
2.7955	399.249089427	337.0
2.8058	399.800625934	322.0
2.816	400.34490994	355.0
2.8262	400.887311978	354.0
2.8365	401.433128572	378.0
2.8467	401.971767879	364.0
2.857	402.513798056	328.0
2.8672	403.048700736	341.0
2.8774	403.581753885	373.0
2.8877	404.118162737	340.0
2.8979	404.647518011	329.0
2.9082	405.180205709	360.0
2.9184	405.705888761	364.0
2.9286	406.22975416	344.0
2.9389	406.756917423	351.0
2.9491	407.277148684	352.0
2.9594	407.800654931	322.0
2.9696	408.317277264	338.0
2.9798	408.832113274	361.0
2.9901	409.350190306	319.0
3.0003	409.861454816	343.0
3.0106	410.375937864	330.0
3.0208	410.88365565	331.0
3.031	411.389617902	343.0
3.0413	411.898765313	361.0
3.0515	412.401217624	343.0
3.0618	412.906832998	325.0
3.072	413.405799717	301.0
3.0822	413.90304116	290.0
3.0925	414.403412863	294.0
3.1027	414.897204863	331.0
3.113	415.394105406	311.0
3.1232	415.884471892	348.0
3.1334	416.373142839	329.0
3.1437	416.864890091	347.0
3.1539	417.35017105	335.0
3.1642	417.838506973	339.0
3.1744	418.320421459	330.0
3.1846	418.800669632	327.0
3.1949	419.283941087	314.0
3.2051	419.7608577	358.0
3.2154	420.240776624	342.0
3.2256	420.71438479	369.0
3.2358	421.186355364	384.0
3.2461	421.66129711	361.0
3.2563	422.129993548	345.0
3.2666	422.601640548	389.0
3.2768	423.067085563	374.0
3.287	423.530921211	410.0
3.2973	423.997676821	394.0
3.3075	424.458294767	388.0
3.3178	424.921812418	440.0
3.328	425.379234983	435.0
3.3382	425.83507592	429.0
3.3485	426.29378649	420.0
3.3587	426.746465185	503.0
3.369	427.201993606	497.0
3.3792	427.651531996	515.0
3.3894	428.099516019	502.0
3.3997	428.550320214	502.0
3.4099	428.9951965	512.0
3.4202	429.442873394	530.0
3.4304	429.884663502	561.0
3.4406	430.324926034	573.0
3.4509	430.767960129	492.0
3.4611	431.205168489	568.0
3.4714	431.645129186	600.0
3.4816	432.079304562	599.0
3.4918	432.511978691	657.0
3.5021	432.947376612	612.0
3.5123	433.377049211	635.0
3.5226	433.809426707	614.0
3.5328	434.236118598	680.0
3.543	434.661335119	663.0
3.5533	435.089228484	707.0
3.5635	435.511495209	666.0
3.5738	435.936420209	686.0
3.584	436.355757603	725.0
3.5942	436.773645055	711.0
3.6045	437.194163213	701.0
3.6147	437.609151713	764.0
3.625	438.026752669	771.0
3.6352	438.438862327	752.0
3.6454	438.849547035	787.0
3.6557	439.262817105	825.0
3.6659	439.670652828	831.0
3.6762	440.081055978	856.0
3.6864	440.486062478	800.0
3.6966	440.889668589	820.0
3.7069	441.295815501	854.0
3.7171	441.696621732	821.0
3.7274	442.099951138	861.0
3.7376	442.497976911	880.0
3.7478	442.894626433	845.0
3.7581	443.293772962	844.0
3.7683	443.687670862	840.0
3.7786	444.084048447	891.0
3.7888	444.475213814	922.0
3.799	444.86502665	895.0
3.8093	445.257293455	827.0
3.8195	445.644402097	898.0
3.8298	446.033947685	834.0
3.84	446.418370892	881.0
3.8502	446.80146488	827.0
3.8605	447.186970541	827.0
3.8707	447.567406945	799.0
3.881	447.950238291	850.0
3.8912	448.328035546	900.0
3.9014	448.704526494	848.0
3.9117	449.083387545	811.0
3.9219	449.457266715	778.0
3.9322	449.833499547	804.0
3.9424	450.204785056	840.0
3.9526	450.574786773	847.0
3.9629	450.947117743	769.0
3.9731	451.314552699	846.0
3.9834	451.68430075	789.0
3.9936	452.04918675	783.0
4.0038	452.412811086	803.0
4.0141	452.778724527	780.0
4.0243	453.139826342	719.0
4.0346	453.503201384	766.0
4.0448	453.861798178	705.0
4.055	454.219155053	729.0
4.0653	454.578761579	730.0
4.0755	454.933639412	745.0
4.0858	455.29075129	678.0
4.096	455.643167278	723.0
4.1062	455.99436472	678.0
4.1165	456.347773037	744.0
4.1267	456.696534165	710.0
4.137	457.047490832	712.0
4.1472	457.393832548	650.0
4.1574	457.73897672	674.0
4.1677	458.086293661	693.0
4.1779	458.429043512	659.0
4.1882	458.773951059	655.0
4.1984	459.1143232	652.0
4.2086	459.453518437	678.0
4.2189	459.794848993	639.0
4.2291	460.131691179	620.0
4.2394	460.47065387	647.0
4.2496	460.805159327	647.0
4.2598	461.138508166	684.0
4.2701	461.473955519	656.0
4.2803	461.804991864	633.0
4.2906	462.138112165	702.0
4.3008	462.466852057	631.0
4.311	462.794455267	670.0
4.3213	463.12412082	668.0
4.3315	463.449451394	673.0
4.3418	463.776830005	698.0
4.352	464.099903708	698.0
4.3622	464.421860321	627.0
4.3725	464.74584373	663.0
4.3827	465.065566878	658.0
4.393	465.387302763	688.0
4.4032	465.70480794	670.0
4.4134	466.021215281	702.0
4.4237	466.339614485	687.0
4.4339	466.653826857	720.0
4.4442	466.970017274	687.0
4.4544	467.282049905	719.0
4.4646	467.593003621	688.0
4.4749	467.905914869	693.0
4.4851	468.214711449	665.0
4.4954	468.525451982	666.0
4.5056	468.832106391	677.0
4.5158	469.137700482	771.0
4.5261	469.445218365	706.0
4.5363	469.748692501	679.0
4.5466	470.054077082	681.0
4.5568	470.35544597	694.0
4.567	470.655772815	669.0
4.5773	470.957990293	702.0
4.5875	471.256233723	679.0
4.5978	471.556354669	715.0
4.608	471.852529137	679.0
4.6182	472.147679523	688.0
4.6285	472.444687954	683.0
4.6387	472.737790834	656.0
4.649	473.03273887	666.0
4.6592	473.323808449	652.0
4.6694	473.613871597	675.0
4.6797	473.905760766	630.0
4.6899	474.1938117	664.0
4.7002	474.483675986	663.0
4.7104	474.769728665	655.0
4.7206	475.05479226	651.0
4.7309	475.341650401	703.0
4.7411	475.624736464	674.0
4.7514	475.909604625	647.0
4.7616	476.190726875	644.0
4.7718	476.470877089	672.0
4.7821	476.752790919	635.0
4.7923	477.030997686	681.0
4.8026	477.310955835	642.0
4.8128	477.587232637	653.0
4.823	477.862554158	638.0
4.8333	478.139608897	664.0
4.8435	478.413020469	688.0
4.8538	478.688153235	702.0
4.864	478.959668106	627.0
4.8742	479.230244162	597.0
4.8845	479.502523561	637.0
4.8947	479.771222588	607.0
4.905	480.041613141	637.0
4.9152	480.308448159	618.0
4.9254	480.574360543	658.0
4.9357	480.841946911	645.0
4.9459	481.106014618	614.0
4.9562	481.371744697	644.0
4.9664	481.633980523	628.0
4.9766	481.895309618	577.0
4.9869	482.158283844	602.0
4.9971	482.417800057	589.0
5.0074	482.67894999	601.0
5.0176	482.936665897	578.0
5.0278	483.193490701	574.0
5.0381	483.451932281	623.0
5.0483	483.70697545	573.0
5.0586	483.96362418	560.0
5.0688	484.216898074	624.0
5.079	484.469296223	558.0
5.0893	484.723283282	592.0
5.0995	484.973930505	635.0
5.1098	485.226155615	548.0
5.12	485.475064058	607.0
5.1302	485.723111851	582.0
5.1405	485.972721167	564.0
5.1507	486.219048213	584.0
5.161	486.46692595	542.0
5.1712	486.711544185	517.0
5.1814	486.955316605	608.0
5.1917	487.200623634	548.0
5.2019	487.442704966	559.0
5.2122	487.68631026	528.0
5.2224	487.926712235	555.0
5.2326	488.166282972	535.0
5.2429	488.407361868	517.0
5.2531	488.645270665	552.0
5.2634	488.884677157	574.0
5.2736	489.120935543	469.0
5.2838	489.356377018	552.0
5.2941	489.593300657	531.0
5.3043	489.827108838	528.0
5.3146	490.062388899	535.0
5.3248	490.294575115	526.0
5.335	490.525958501	525.0
5.3453	490.758798504	474.0
5.3555	490.988576746	549.0
5.3658	491.2198015	502.0
5.376	491.447985734	522.0
5.3862	491.675380977	513.0
5.3965	491.904207729	532.0
5.4067	492.130025494	584.0
5.417	492.357264838	541.0
5.4272	492.581516069	530.0
5.4374	492.804991908	541.0
5.4477	493.029874582	483.0
5.4579	493.251800133	536.0
5.4682	493.47512276	540.0
5.4784	493.695508778	546.0
5.4886	493.915132767	535.0
5.4989	494.136139344	559.0
5.5091	494.354239767	539.0
5.5194	494.573713186	519.0
5.5296	494.790300612	516.0
5.5398	495.006139143	491.0
5.5501	495.223336432	517.0
5.5603	495.437677657	550.0
5.5706	495.653368214	488.0
5.5808	495.866222519	532.0
5.591	496.078340839	480.0
5.6013	496.291794497	531.0
5.6115	496.502441318	504.0
5.6218	496.714414214	526.0
5.632	496.923599744	499.0
5.6422	497.132061975	508.0
5.6525	497.341836527	512.0
5.6627	497.548852621	517.0
5.673	497.757171934	525.0
5.6832	497.962751924	548.0
5.6934	498.167621082	533.0
5.7037	498.373779942	500.0
5.7139	498.577227889	508.0
5.7242	498.781956592	509.0
5.7344	498.983993188	519.0
5.7446	499.185331203	500.0
5.7549	499.387936691	498.0
5.7651	499.587877992	520.0
5.7754	499.789077973	504.0
5.7856	499.987632249	468.0
5.7958	500.185499985	512.0
5.8061	500.384613347	504.0
5.8163	500.581108443	502.0
5.8266	500.778840524	525.0
5.8368	500.973972501	481.0
5.847	501.168429771	497.0
5.8573	501.364111199	490.0
5.8675	501.557219488	529.0
5.8778	501.751543442	506.0
5.888	501.943312107	552.0
5.8982	502.134417695	465.0
5.9085	502.326726341	510.0
5.9187	502.516506199	484.0
5.929	502.707480768	502.0
5.9392	502.895944093	518.0
5.9494	503.083755769	472.0
5.9597	503.272749766	468.0
5.9699	503.459258561	471.0
5.9802	503.646941477	480.0
5.9904	503.832156431	493.0
6.0006	504.016730969	452.0
6.0109	504.202467449	428.0
6.0211	504.385761563	458.0
6.0314	504.57020956	450.0
6.0416	504.752232133	437.0
6.0518	504.933625328	448.0
6.0621	505.116160438	439.0
6.0723	505.29629528	449.0
6.0826	505.477564115	404.0
6.0928	505.656449331	427.0
6.103	505.834716017	439.0
6.1133	506.014104937	389.0
6.1235	506.191134958	401.0
6.1338	506.369279428	434.0
6.144	506.545081364	426.0
6.1542	506.72027543	399.0
6.1645	506.896572386	386.0
6.1747	507.070551103	358.0
6.185	507.245625059	386.0
6.1952	507.418396858	368.0
6.2054	507.590571264	379.0
6.2157	507.763829551	372.0
6.2259	507.934809556	332.0
6.2362	508.106865922	355.0
6.2464	508.276659811	363.0
6.2566	508.445866604	322.0
6.2669	508.616138597	349.0
6.2771	508.784171575	329.0
6.2874	508.953262363	310.0
6.2976	509.12012967	295.0
6.3078	509.28642	320.0
6.3181	509.45375717	296.0
6.3283	509.618893918	319.0
6.3386	509.785070242	298.0
6.3488	509.94906141	336.0
6.359	510.112485546	313.0
6.3693	510.276938477	297.0
6.3795	510.439228914	277.0
6.3898	510.602541009	269.0
6.4	510.763705611	249.0
6.4102	510.924312954	240.0
6.4205	511.085931361	226.0
6.4307	511.245424545	245.0
6.441	511.405921779	248.0
6.4512	511.564308534	241.0
6.4614	511.722147636	231.0
6.4717	511.880980373	227.0
6.4819	512.03772452	224.0
6.4922	512.19545541	218.0
6.5024	512.351112197	204.0
6.5126	512.50623077	201.0
6.5229	512.662325853	215.0
6.5331	512.816368343	198.0
6.5434	512.97138057	199.0
6.5536	513.124354443	186.0
6.5638	513.276799379	172.0
6.5741	513.430203994	194.0
6.5843	513.581591395	161.0
6.5946	513.733931818	169.0
6.6048	513.88426902	160.0
6.615	514.034086402	168.0
6.6253	514.184846922	165.0
6.6355	514.333624996	141.0
6.6458	514.483339666	146.0
6.656	514.631085644	131.0
6.6662	514.77832076	125.0
6.6765	514.926482759	114.0
6.6867	515.072696482	126.0
6.697	515.219830657	128.0
6.7072	515.365030072	137.0
6.7174	515.509727431	135.0
6.7277	515.655335697	92.0
6.7379	515.799029267	105.0
6.7482	515.943627425	108.0
6.7584	516.08632417	118.0
6.7686	516.228527513	90.0
6.7789	516.371626062	88.0
6.7891	516.512842918	97.0
6.7994	516.65494877	94.0
6.8096	516.795185982	103.0
6.8198	516.934938296	91.0
6.8301	517.075570386	63.0
6.8403	517.214353216	82.0
6.8506	517.354009718	93.0
6.8608	517.49182979	85.0
6.871	517.629173321	82.0
6.8813	517.767381464	62.0
6.8915	517.903772221	83.0
6.9018	518.041021593	68.0
6.912	518.176466185	72.0
6.9222	518.311442452	73.0
6.9325	518.447268427	75.0
6.9427	518.581308342	58.0
6.953	518.716192071	57.0
6.9632	518.849302129	53.0
6.9734	518.981951933	58.0
6.9837	519.1154368	45.0
6.9939	519.247166391	45.0
7.0042	519.379725253	53.0
7.0144	519.510541014	49.0
7.0246	519.640904455	39.0
7.0349	519.772088565	57.0
7.0451	519.901547654	41.0
7.0554	520.031821719	45.0
7.0656	520.160382729	50.0
7.0758	520.288499214	38.0
7.0861	520.417422224	41.0
7.0963	520.544649945	22.0
7.1066	520.672678595	46.0
7.1168	520.799023716	34.0
7.127	520.924931974	42.0
7.1373	521.051632857	40.0
7.1475	521.176667669	35.0
7.1578	521.302489607	34.0
7.168	521.426657032	25.0
7.1782	521.550395125	39.0
7.1885	521.67491218	33.0
7.1987	521.797791881	17.0
7.209	521.921445141	29.0
7.2192	522.043472407	22.0
7.2294	522.165077739	24.0
7.2397	522.287448607	22.0
7.2499	522.408210343	21.0
7.2602	522.529732305	26.0
7.2704	522.649656298	17.0
7.2806	522.76916563	30.0
7.2909	522.889427303	22.0
7.3011	523.00810758	18.0
7.3114	523.127534979	10.0
7.3216	523.245391952	12.0
7.3318	523.362841411	19.0
7.3421	523.481030243	19.0
7.3523	523.597664937	19.0
7.3626	523.715033874	16.0
7.3728	523.830859454	14.0
7.383	523.946284544	19.0
7.3933	524.062436264	20.0
7.4035	524.177060632	15.0
7.4138	524.292406588	15.0
7.424	524.406235788	24.0
7.4342	524.519671402	18.0
7.4445	524.63382112	14.0
7.4547	524.746469812	10.0
7.465	524.859827656	12.0
7.4752	524.971694886	8.0
7.4854	525.083175314	9.0
7.4957	525.195357538	9.0
7.5059	525.306064608	9.0
7.5162	525.417468606	8.0
7.5264	525.527407683	13.0
7.5366	525.636966624	10.0
7.5469	525.747215266	13.0
7.5571	525.856014179	9.0
7.5674	525.965498008	14.0
7.5776	526.073542166	17.0
7.5878	526.181212739	10.0
7.5981	526.289561126	10.0
7.6083	526.396484772	6.0
7.6186	526.504081528	13.0
7.6288	526.610263428	11.0
7.639	526.716078182	8.0
7.6493	526.822559067	10.0
7.6595	526.927639767	6.0
7.6698	527.033381977	11.0
7.68	527.137733716	7.0
7.6902	527.241724638	12.0
7.7005	527.346370209	8.0
7.7107	527.449639729	6.0
7.721	527.553559357	13.0
7.7312	527.65611248	5.0
7.7414	527.758311006	13.0
7.7517	527.861152897	11.0
7.7619	527.962642455	4.0
7.7722	528.064770915	3.0
7.7824	528.165556424	13.0
7.7926	528.265993447	6.0
