TL-DOS Lehrstuhlversuch
detector=R1408306
job_number=2015-10-15-006
irradiation_dose [mSv]=1.0

[BEGIN DATA]
time [sec] 	 temperature [K] 	 photoncount 
0.0	251.982128356	0.0
0.0102	252.676004305	2.0
0.0205	253.375391863	1.0
0.0307	254.066713042	2.0
0.041	254.763525537	0.0
0.0512	255.452301353	0.0
0.0614	256.139814189	1.0
0.0717	256.83278809	3.0
0.0819	257.517769584	1.0
0.0922	258.208192037	0.0
0.1024	258.890651509	2.0
0.1126	259.571859584	0.0
0.1229	260.258478644	1.0
0.1331	260.937178591	1.0
0.1434	261.6212696	2.0
0.1536	262.297470653	3.0
0.1638	262.972431783	0.0
0.1741	263.652754279	0.0
0.1843	264.325230282	0.0
0.1946	265.00304791	2.0
0.2048	265.673047935	0.0
0.215	266.341819408	0.0
0.2253	267.015903081	0.0
0.2355	267.682212216	0.0
0.2458	268.353813992	0.0
0.256	269.017669855	1.0
0.2662	269.680308433	2.0
0.2765	270.348210496	0.0
0.2867	271.008409316	0.0
0.297	271.673852242	0.0
0.3072	272.331620287	1.0
0.3174	272.988182211	0.0
0.3277	273.649959351	0.0
0.3379	274.304103891	0.0
0.3482	274.963444444	1.0
0.3584	275.615180501	1.0
0.3686	276.265721495	0.0
0.3789	276.92142988	0.0
0.3891	277.569575659	0.0
0.3994	278.222869803	0.0
0.4096	278.868629185	0.0
0.4198	279.513204465	0.0
0.4301	280.162899748	0.0
0.4403	280.805101777	0.0
0.4506	281.452404958	0.0
0.4608	282.092242475	0.0
0.471	282.730906748	0.0
0.4813	283.374644071	0.0
0.4915	284.010956857	0.0
0.5018	284.652324016	0.0
0.512	285.286293973	0.0
0.5222	285.919101445	0.0
0.5325	286.556935446	0.0
0.5427	287.187412995	0.0
0.553	287.822898566	1.0
0.5632	288.451054771	0.0
0.5734	289.078059152	0.0
0.5837	289.710043966	0.0
0.5939	290.33473979	0.0
0.6042	290.964397711	0.0
0.6144	291.586793478	0.0
0.6246	292.208047984	0.0
0.6349	292.834237251	0.0
0.6451	293.45320437	0.0
0.6554	294.077088082	0.0
0.6656	294.693776237	0.0
0.6758	295.309333597	0.0
0.6861	295.929780464	0.0
0.6963	296.543071413	0.0
0.7066	297.161233868	0.0
0.7168	297.772266752	0.0
0.727	298.38217921	0.0
0.7373	298.996936337	0.0
0.7475	299.604603169	0.0
0.7578	300.217096832	0.0
0.768	300.822526306	0.0
0.7782	301.426845629	0.0
0.7885	302.035965193	0.0
0.7987	302.638059483	0.0
0.809	303.244936341	1.0
0.8192	303.84481379	0.0
0.8294	304.443591269	0.0
0.8397	305.047124969	0.0
0.8499	305.643697819	0.0
0.8602	306.245009379	0.0
0.8704	306.839385718	0.0
0.8806	307.432672174	0.0
0.8909	308.030671234	0.0
0.9011	308.621773279	0.0
0.9114	309.217570577	0.0
0.9216	309.806496253	0.0
0.9318	310.39434204	0.0
0.9421	310.986857215	0.0
0.9523	311.572538623	1.0
0.9626	312.162872228	0.0
0.9728	312.746397225	0.0
0.983	313.328852237	0.0
0.9933	313.915933817	0.0
1.0035	314.496244298	0.0
1.0138	315.081164313	0.0
1.024	315.659338159	0.0
1.0342	316.236451831	0.0
1.0445	316.818149644	0.0
1.0547	317.393138451	0.0
1.065	317.972694521	0.0
1.0752	318.545566286	0.0
1.0854	319.117387601	0.0
1.0957	319.693751018	0.0
1.1059	320.263466953	0.0
1.1162	320.837708268	1.0
1.1264	321.405326576	0.0
1.1366	321.971904065	0.0
1.1469	322.542982005	1.0
1.1571	323.107473423	0.0
1.1674	323.67644872	0.0
1.1776	324.238861747	0.0
1.1878	324.8002435	0.0
1.1981	325.366084432	0.0
1.2083	325.925399243	0.0
1.2186	326.489156815	1.0
1.2288	327.046412295	0.0
1.239	327.602645958	1.0
1.2493	328.163297908	0.0
1.2595	328.717483584	0.0
1.2698	329.276071278	1.0
1.28	329.828216508	0.0
1.2902	330.379349291	0.0
1.3005	330.934859844	0.0
1.3107	331.483963421	0.0
1.321	332.037428649	0.0
1.3312	332.584510491	2.0
1.3414	333.130589171	1.0
1.3517	333.681005475	1.0
1.3619	334.225073558	1.0
1.3722	334.773463294	0.0
1.3824	335.315528182	0.0
1.3926	335.856599108	0.0
1.4029	336.401967879	0.0
1.4131	336.941046645	1.0
1.4234	337.484407433	0.0
1.4336	338.021501375	0.0
1.4438	338.557610469	1.0
1.4541	339.097977996	0.0
1.4643	339.6321132	1.0
1.4746	340.170491157	1.0
1.4848	340.702659737	0.0
1.495	341.233852502	0.0
1.5053	341.769264648	1.0
1.5155	342.298501623	1.0
1.5258	342.831942444	1.0
1.536	343.359230831	1.0
1.5462	343.88555235	0.0
1.5565	344.416054558	3.0
1.5667	344.940438223	1.0
1.577	345.468987184	2.0
1.5872	345.99144013	0.0
1.5974	346.512935076	0.0
1.6077	347.038572372	1.0
1.6179	347.558147234	1.0
1.6282	348.081849195	1.0
1.6384	348.599511043	2.0
1.6486	349.116223677	2.0
1.6589	349.637040673	1.0
1.6691	350.151850832	1.0
1.6794	350.670750241	2.0
1.6896	351.183664928	3.0
1.6998	351.695639105	2.0
1.7101	352.211680006	0.0
1.7203	352.721769155	0.0
1.7306	353.235910053	0.0
1.7408	353.744121113	1.0
1.751	354.251400287	1.0
1.7613	354.762708892	3.0
1.7715	355.268120323	4.0
1.7818	355.777546349	2.0
1.792	356.281096916	2.0
1.8022	356.783724142	1.0
1.8125	357.290343847	6.0
1.8227	357.791120458	2.0
1.833	358.295874849	3.0
1.8432	358.794807659	3.0
1.8534	359.292825598	3.0
1.8637	359.794799402	2.0
1.8739	360.290983697	1.0
1.8842	360.791109292	4.0
1.8944	361.285466695	2.0
1.9046	361.778917614	1.0
1.9149	362.276288123	4.0
1.9251	362.767922214	5.0
1.9354	363.263461462	4.0
1.9456	363.753285414	8.0
1.9558	364.242211196	4.0
1.9661	364.735020623	4.0
1.9763	365.222146238	2.0
1.9866	365.713141198	5.0
1.9968	366.198473273	10.0
2.007	366.682915415	6.0
2.0173	367.171205587	11.0
2.0275	367.653864069	11.0
2.0378	368.140356414	9.0
2.048	368.621237805	9.0
2.0582	369.101237423	12.0
2.0685	369.585049783	7.0
2.0787	370.063282099	14.0
2.089	370.545313119	8.0
2.0992	371.02178464	6.0
2.1094	371.497382474	13.0
2.1197	371.976758086	14.0
2.1299	372.450604825	14.0
2.1402	372.928215433	11.0
2.1504	373.400317523	12.0
2.1606	373.87155394	16.0
2.1709	374.346533491	17.0
2.1811	374.81603487	12.0
2.1914	375.289265602	23.0
2.2016	375.757038332	15.0
2.2118	376.223953327	16.0
2.2221	376.69457713	19.0
2.2323	377.159772998	22.0
2.2426	377.62866402	13.0
2.2528	378.092147091	21.0
2.263	378.554780293	22.0
2.2733	379.021088292	31.0
2.2835	379.482018133	22.0
2.2938	379.94660924	34.0
2.304	380.405841991	19.0
2.3142	380.864232666	49.0
2.3245	381.326264439	23.0
2.3347	381.782967373	30.0
2.345	382.243297999	38.0
2.3552	382.698319406	42.0
2.3654	383.152506459	45.0
2.3757	383.61030122	47.0
2.3859	384.06281601	41.0
2.3962	384.518925225	52.0
2.4064	384.969773908	53.0
2.4166	385.419795889	57.0
2.4269	385.873392493	52.0
2.4371	386.321757546	59.0
2.4474	386.773684061	52.0
2.4576	387.220398286	47.0
2.4678	387.666293389	56.0
2.4781	388.115730336	51.0
2.4883	388.559983706	71.0
2.4986	389.007765878	60.0
2.5088	389.450383559	70.0
2.519	389.892189631	78.0
2.5293	390.337505065	68.0
2.5395	390.777684458	71.0
2.5498	391.221360293	74.0
2.56	391.659918998	77.0
2.5702	392.097673535	81.0
2.5805	392.538905253	82.0
2.5907	392.975048029	93.0
2.601	393.414655184	99.0
2.6112	393.849192133	119.0
2.6214	394.282932291	98.0
2.6317	394.720117742	106.0
2.6419	395.152260918	116.0
2.6522	395.587836704	104.0
2.6624	396.01838878	112.0
2.6726	396.448151371	128.0
2.6829	396.88132766	115.0
2.6931	397.309507916	102.0
2.7034	397.741089301	134.0
2.7136	398.167693047	116.0
2.7238	398.593514547	135.0
2.7341	399.022718441	116.0
2.7443	399.446972116	142.0
2.7546	399.874595731	139.0
2.7648	400.297287354	190.0
2.775	400.719203905	144.0
2.7853	401.144471832	152.0
2.7955	401.564834935	148.0
2.8058	401.988537075	151.0
2.816	402.407352451	159.0
2.8262	402.825399862	153.0
2.8365	403.246767916	132.0
2.8467	403.663276125	161.0
2.857	404.083092751	143.0
2.8672	404.498067427	175.0
2.8774	404.91228118	157.0
2.8877	405.329785124	144.0
2.8979	405.742473791	176.0
2.9082	406.158440535	167.0
2.9184	406.56960973	154.0
2.9286	406.980024981	164.0
2.9389	407.393700252	159.0
2.9491	407.802604402	159.0
2.9594	408.214756569	149.0
2.9696	408.622155182	163.0
2.9798	409.028806765	141.0
2.9901	409.438688472	141.0
3.0003	409.843842812	169.0
3.0106	410.252215382	147.0
3.0208	410.655877991	158.0
3.031	411.058800421	159.0
3.0413	411.464923352	140.0
3.0515	411.866362268	166.0
3.0618	412.270989903	138.0
3.072	412.670950768	126.0
3.0822	413.070178242	137.0
3.0925	413.472576867	129.0
3.1027	413.870334432	124.0
3.113	414.271251473	119.0
3.1232	414.667544541	101.0
3.1334	415.063110943	97.0
3.1437	415.461819416	102.0
3.1539	415.855929389	108.0
3.1642	416.253169864	102.0
3.1744	416.64582877	103.0
3.1846	417.037767674	100.0
3.1949	417.432819834	84.0
3.2051	417.823315665	85.0
3.2154	418.21691329	98.0
3.2256	418.60597136	77.0
3.2358	418.994316031	77.0
3.2461	419.385745409	79.0
3.2563	419.77266024	97.0
3.2666	420.162648422	83.0
3.2768	420.548138678	77.0
3.287	420.932922076	90.0
3.2973	421.320761894	77.0
3.3075	421.704128566	67.0
3.3178	422.090540403	64.0
3.328	422.472495563	84.0
3.3382	422.853750348	78.0
3.3485	423.238033523	70.0
3.3587	423.617884572	81.0
3.369	424.000752862	84.0
3.3792	424.379205344	83.0
3.3894	424.756963874	73.0
3.3997	425.137723023	89.0
3.4099	425.514090689	105.0
3.4202	425.893447928	88.0
3.4304	426.268429853	80.0
3.4406	426.642724189	78.0
3.4509	427.019991628	103.0
3.4611	427.392907856	94.0
3.4714	427.76878624	98.0
3.4816	428.140329435	99.0
3.4918	428.511191346	89.0
3.5021	428.884999095	95.0
3.5123	429.254495536	111.0
3.5226	429.626926969	99.0
3.5328	429.995062968	127.0
3.543	430.36252393	108.0
3.5533	430.732903716	112.0
3.5635	431.099011731	107.0
3.5738	431.468027822	129.0
3.584	431.83278787	104.0
3.5942	432.196879072	110.0
3.6045	432.563862331	118.0
3.6147	432.926612992	119.0
3.625	433.292245061	124.0
3.6352	433.653660117	124.0
3.6454	434.014412461	136.0
3.6557	434.37803034	119.0
3.6659	434.737454436	129.0
3.6762	435.099733516	133.0
3.6864	435.457834255	139.0
3.6966	435.815278359	142.0
3.7069	436.17556172	139.0
3.7171	436.531689757	141.0
3.7274	436.890646597	152.0
3.7376	437.245463412	147.0
3.7478	437.599629614	135.0
3.7581	437.956609036	147.0
3.7683	438.30947124	151.0
3.7786	438.665136305	141.0
3.7888	439.016699312	154.0
3.799	439.367617671	157.0
3.8093	439.721323453	147.0
3.8195	440.070949772	148.0
3.8298	440.423353251	180.0
3.84	440.771692287	140.0
3.8502	441.119392588	152.0
3.8605	441.46985475	160.0
3.8707	441.816274859	166.0
3.881	442.16544666	141.0
3.8912	442.510591291	169.0
3.9014	442.855103045	157.0
3.9117	443.202351332	149.0
3.9219	443.545594634	145.0
3.9322	443.891564393	146.0
3.9424	444.233543913	155.0
3.9526	444.57489636	136.0
3.9629	444.918960244	151.0
3.9731	445.259055871	152.0
3.9834	445.601852953	152.0
3.9936	445.940696387	156.0
4.0038	446.278918499	142.0
4.0141	446.619827183	139.0
4.0243	446.956804	128.0
4.0346	447.296457499	146.0
4.0448	447.632193607	131.0
4.055	447.967314089	141.0
4.0653	448.305096508	155.0
4.0755	448.638983116	153.0
4.0858	448.975521859	127.0
4.096	449.308179136	134.0
4.1062	449.640226433	145.0
4.1165	449.974911255	167.0
4.1267	450.305735993	159.0
4.137	450.639188545	140.0
4.1472	450.968795224	120.0
4.1574	451.297797518	124.0
4.1677	451.62941315	133.0
4.1779	451.957204095	154.0
4.1882	452.287598757	136.0
4.1984	452.614182815	129.0
4.2086	452.940168029	113.0
4.2189	453.268742616	110.0
4.2291	453.593527591	116.0
4.2394	453.920892404	149.0
4.2496	454.244481559	129.0
4.2598	454.567477361	146.0
4.2701	454.893038791	115.0
4.2803	455.214845361	144.0
4.2906	455.539208111	133.0
4.3008	455.859829827	118.0
4.311	456.179863632	127.0
4.3213	456.502439536	111.0
4.3315	456.821295014	116.0
4.3418	457.142683231	127.0
4.352	457.460364721	147.0
4.3622	457.777463691	116.0
4.3725	458.097081448	128.0
4.3827	458.413012897	140.0
4.393	458.731453859	113.0
4.4032	459.046222085	136.0
4.4134	459.360413134	115.0
4.4237	459.677099871	122.0
4.4339	459.990134105	122.0
4.4442	460.305654839	103.0
4.4544	460.617536518	118.0
4.4646	460.928846312	123.0
4.4749	461.242628909	143.0
4.4851	461.552792497	120.0
4.4954	461.865419782	121.0
4.5056	462.174441384	103.0
4.5158	462.482896346	135.0
4.5261	462.793801434	130.0
4.5363	463.101120701	113.0
4.5466	463.410881072	122.0
4.5568	463.717068826	134.0
4.567	464.022695135	123.0
4.5773	464.330749102	142.0
4.5875	464.635250131	107.0
4.5978	464.942169879	134.0
4.608	465.245549771	111.0
4.6182	465.548373368	128.0
4.6285	465.853602359	133.0
4.6387	466.155310995	132.0
4.649	466.459416169	131.0
4.6592	466.760013949	125.0
4.6694	467.060060536	129.0
4.6797	467.362490458	140.0
4.6899	467.661432308	144.0
4.7002	467.962748719	127.0
4.7104	468.2605899	120.0
4.7206	468.557884942	121.0
4.7309	468.857541464	124.0
4.7411	469.153741901	130.0
4.7514	469.452295123	127.0
4.7616	469.747404984	128.0
4.7718	470.041973714	123.0
4.7821	470.338882269	129.0
4.7923	470.632366432	134.0
4.8026	470.928181804	120.0
4.8128	471.220585393	145.0
4.823	471.512452813	118.0
4.8333	471.8066386	133.0
4.8435	472.097431399	137.0
4.8538	472.390534029	118.0
4.864	472.680256162	133.0
4.8742	472.969447044	110.0
4.8845	473.260935033	115.0
4.8947	473.549061148	122.0
4.905	473.839475912	137.0
4.9152	474.126541181	145.0
4.9254	474.41308007	112.0
4.9357	474.701895	132.0
4.9459	474.987378886	128.0
4.9562	475.275130434	124.0
4.9664	475.559563202	118.0
4.9766	475.843474417	107.0
4.9869	476.129640802	123.0
4.9971	476.412506689	107.0
5.0074	476.697619443	128.0
5.0176	476.979443851	125.0
5.0278	477.26075149	103.0
5.0381	477.544293617	107.0
5.0483	477.824565514	102.0
5.0586	478.107063672	121.0
5.0688	478.386303641	113.0
5.079	478.665031578	137.0
5.0893	478.945973513	133.0
5.0995	479.223675208	115.0
5.1098	479.503582748	119.0
5.12	479.780261977	95.0
5.1302	480.05643387	131.0
5.1405	480.334799458	108.0
5.1507	480.60995452	111.0
5.161	480.887295198	111.0
5.1712	481.161437171	139.0
5.1814	481.43507646	97.0
5.1917	481.710889327	104.0
5.2019	481.983521109	100.0
5.2122	482.258318466	112.0
5.2224	482.529946449	118.0
5.2326	482.80107636	103.0
5.2429	483.074359915	104.0
5.2531	483.344491557	117.0
5.2634	483.616768914	110.0
5.2736	483.885905963	102.0
5.2838	484.154549507	100.0
5.2941	484.425326945	100.0
5.3043	484.692981375	104.0
5.3146	484.962761842	95.0
5.3248	485.2294308	116.0
5.335	485.495610777	143.0
5.3453	485.76390508	107.0
5.3555	486.029105014	95.0
5.3658	486.29641149	94.0
5.376	486.560634988	82.0
5.3862	486.824373992	119.0
5.3965	487.090207932	106.0
5.4067	487.352975879	134.0
5.417	487.617831049	122.0
5.4272	487.879631515	96.0
5.4374	488.140951929	90.0
5.4477	488.404348068	91.0
5.4579	488.66470633	110.0
5.4682	488.927132676	106.0
5.4784	489.186532329	107.0
5.4886	489.445456333	72.0
5.4989	489.706437026	115.0
5.5091	489.964407702	117.0
5.5194	490.224427495	101.0
5.5296	490.481448353	99.0
5.5398	490.737997922	105.0
5.5501	490.996585321	92.0
5.5603	491.252190304	116.0
5.5706	491.509825615	105.0
5.5808	491.764489491	115.0
5.591	492.0186864	109.0
5.6013	492.274902452	113.0
5.6115	492.528163438	87.0
5.6218	492.783436132	110.0
5.632	493.035764641	101.0
5.6422	493.287630465	96.0
5.6525	493.541496915	119.0
5.6627	493.792435399	118.0
5.673	494.045367143	103.0
5.6832	494.295381701	101.0
5.6934	494.544937818	106.0
5.7037	494.796476214	113.0
5.7139	495.045113494	95.0
5.7242	495.295725755	107.0
5.7344	495.543447582	115.0
5.7446	495.790715171	120.0
5.7549	496.039946862	93.0
5.7651	496.286304041	101.0
5.7754	496.53461809	99.0
5.7856	496.780068211	108.0
5.7958	497.02506826	109.0
5.8061	497.272014399	117.0
5.8163	497.516112386	101.0
5.8266	497.762149298	97.0
5.8368	498.005348546	110.0
5.847	498.248101849	113.0
5.8573	498.492783395	104.0
5.8675	498.734642909	96.0
5.8778	498.978423567	112.0
5.888	499.219392582	104.0
5.8982	499.459919743	108.0
5.9085	499.702357464	97.0
5.9187	499.941999032	111.0
5.929	500.183544125	115.0
5.9392	500.422303361	100.0
5.9494	500.660624794	112.0
5.9597	500.900839266	97.0
5.9699	501.138283227	116.0
5.9802	501.377613258	122.0
5.9904	501.614182978	85.0
6.0006	501.85031891	98.0
6.0109	502.088330522	95.0
6.0211	502.32359703	106.0
6.0314	502.560732311	100.0
6.0416	502.795132594	87.0
6.0518	503.029103068	109.0
6.0621	503.26493202	99.0
6.0723	503.498041042	90.0
6.0826	503.7330017	100.0
6.0928	503.965252441	99.0
6.103	504.197077314	84.0
6.1133	504.430743623	98.0
6.1235	504.661714944	98.0
6.1338	504.894520921	101.0
6.144	505.124641832	96.0
6.1542	505.354340781	73.0
6.1645	505.585864278	93.0
6.1747	505.814717502	94.0
6.185	506.045388557	93.0
6.1952	506.27339917	77.0
6.2054	506.50099169	85.0
6.2157	506.730392027	83.0
6.2259	506.957146577	96.0
6.2362	507.185702289	81.0
6.2464	507.411621955	80.0
6.2566	507.637127362	87.0
6.2669	507.864424008	85.0
6.2771	508.089099131	86.0
6.2874	508.315558898	95.0
6.2976	508.539406793	86.0
6.3078	508.762844227	60.0
6.3181	508.988056474	71.0
6.3283	509.210671238	75.0
6.3386	509.435054281	79.0
6.3488	509.656849403	69.0
6.359	509.878237829	77.0
6.3693	510.101384792	84.0
6.3795	510.321958092	68.0
6.3898	510.544283454	73.0
6.4	510.764044629	68.0
6.4102	510.983402836	66.0
6.4205	511.204503455	65.0
6.4307	511.423054011	58.0
6.441	511.643340563	57.0
6.4512	511.861086442	53.0
6.4614	512.078433049	75.0
6.4717	512.297506088	70.0
6.4819	512.514052451	69.0
6.4922	512.732318889	58.0
6.5024	512.948067953	55.0
6.5126	513.163421407	60.0
6.5229	513.380485461	70.0
6.5331	513.595046009	48.0
6.5434	513.811310859	74.0
6.5536	514.02508142	48.0
6.5638	514.238459999	48.0
6.5741	514.453533491	40.0
6.5843	514.666126434	41.0
6.5946	514.880408051	43.0
6.6048	515.092218253	59.0
6.615	515.303640067	47.0
6.6253	515.516741251	43.0
6.6355	515.727384634	50.0
6.6458	515.939701205	45.0
6.656	516.149569024	50.0
6.6662	516.359052018	56.0
6.6765	516.57019898	52.0
6.6867	516.778910682	33.0
6.697	516.989280227	54.0
6.7072	517.197223476	31.0
6.7174	517.404785429	30.0
6.7277	517.613996092	46.0
6.7379	517.820793826	37.0
6.7482	518.029234199	44.0
6.7584	518.235270528	31.0
6.7686	518.440929057	32.0
6.7789	518.648221176	37.0
6.7891	518.853122494	32.0
6.7994	519.059651388	22.0
6.8096	519.263798284	23.0
6.8198	519.467570843	34.0
6.8301	519.672962013	22.0
6.8403	519.875984306	31.0
6.8506	520.080619249	29.0
6.8608	520.282894038	32.0
6.871	520.484797923	16.0
6.8813	520.688305576	29.0
6.8915	520.889466075	18.0
6.9018	521.092224436	19.0
6.912	521.292644286	18.0
6.9222	521.492696634	21.0
6.9325	521.694338042	19.0
6.9427	521.893653821	16.0
6.953	522.094552809	23.0
6.9632	522.293134731	16.0
6.9734	522.491352521	17.0
6.9837	522.691144798	31.0
6.9939	522.888632774	14.0
7.0042	523.08768944	18.0
7.0144	523.284450287	13.0
7.0246	523.480850343	14.0
7.0349	523.678810447	22.0
7.0451	523.874487381	15.0
7.0554	524.071718619	20.0
7.0656	524.266675093	18.0
7.0758	524.461274084	8.0
7.0861	524.657418817	19.0
7.0963	524.851301316	19.0
7.1066	525.046723867	10.0
7.1168	525.239892515	15.0
7.127	525.432706956	14.0
7.1373	525.627052965	12.0
7.1475	525.819157487	8.0
7.1578	526.012787937	12.0
7.168	526.204185152	12.0
7.1782	526.39523141	4.0
7.1885	526.58779519	6.0
7.1987	526.778138038	14.0
7.209	526.969992822	11.0
7.2192	527.15963485	3.0
7.2294	527.348929139	7.0
7.2397	527.539727034	8.0
7.2499	527.728324364	7.0
7.2602	527.918419764	8.0
7.2704	528.106322701	7.0
7.2806	528.293881087	9.0
7.2909	528.482929292	6.0
7.3011	528.66979711	8.0
7.3114	528.858149261	3.0
7.3216	529.044329054	7.0
7.3318	529.230167458	8.0
7.3421	529.417482016	8.0
7.3523	529.602636184	7.0
7.3626	529.789261072	10.0
7.3728	529.973733524	3.0
7.383	530.157867716	2.0
7.3933	530.343464527	6.0
7.4035	530.526920759	5.0
7.4138	530.711834224	3.0
7.424	530.894614992	3.0
7.4342	531.077060601	2.0
7.4445	531.260955417	5.0
7.4547	531.442729284	5.0
7.465	531.62594702	4.0
7.4752	531.807051617	7.0
7.4854	531.987824129	5.0
7.4957	532.170032558	4.0
7.5059	532.350139487	3.0
7.5162	532.531677045	6.0
7.5264	532.711120842	3.0
7.5366	532.8902356	2.0
7.5469	533.070773106	5.0
7.5571	533.249228384	3.0
7.5674	533.429101172	1.0
7.5776	533.606899399	4.0
7.5878	533.784371605	2.0
7.5981	533.963253512	3.0
7.6083	534.140072285	4.0
7.6186	534.31829557	5.0
7.6288	534.494463318	2.0
7.639	534.670308034	4.0
7.6493	534.847549524	2.0
7.6595	535.0227468	5.0
7.6698	535.199335708	1.0
7.68	535.373887929	0.0
7.6902	535.54812008	4.0
7.7005	535.723736196	4.0
7.7107	535.897326846	2.0
7.721	536.072296364	1.0
7.7312	536.245247872	3.0
7.7414	536.417882247	1.0
7.7517	536.591887895	0.0
7.7619	536.76388665	2.0
7.7722	536.93725163	1.0
7.7824	537.108617106	1.0
7.7926	537.279668356	0.0
7.8029	537.452078304	2.0
7.8131	537.622499763	1.0
7.8234	537.794274918	2.0
7.8336	537.964068906	3.0
7.8438	538.133551549	3.0
7.8541	538.304380431	4.0
7.8643	538.473239059	2.0
7.8746	538.643438968	0.0
