TL-DOS Lehrstuhlversuch
detector=R1408305
job_number=2015-10-14-003
irradiation_dose [mSv]=1.0

[BEGIN DATA]
time [sec] 	 temperature [K] 	 photoncount 
0.0	168.728718779	0.0
0.0102	170.30557654	0.0
0.0205	171.891463703	2.0
0.0307	173.455612015	0.0
0.041	175.028716952	2.0
0.0512	176.580258252	0.0
0.0614	178.125564703	2.0
0.0717	179.679719888	0.0
0.0819	181.212571194	3.0
0.0922	182.754199911	2.0
0.1024	184.274696459	1.0
0.1126	185.78908291	1.0
0.1229	187.312141041	2.0
0.1331	188.814321561	2.0
0.1434	190.325103866	2.0
0.1536	191.815176834	2.0
0.1638	193.299261964	3.0
0.1741	194.79184526	1.0
0.1843	196.263968686	0.0
0.1946	197.744521785	2.0
0.2048	199.204779918	1.0
0.215	200.659170023	4.0
0.2253	202.121888256	0.0
0.2355	203.564555999	1.0
0.2458	205.015484746	2.0
0.256	206.446524609	1.0
0.2662	207.871813857	0.0
0.2765	209.305264596	0.0
0.2867	210.719066035	0.0
0.297	212.140963183	0.0
0.3072	213.543369403	1.0
0.3174	214.940140073	0.0
0.3277	216.34490893	0.0
0.3379	217.730421649	0.0
0.3482	219.123868091	0.0
0.3584	220.498213599	0.0
0.3686	221.867036317	1.0
0.3789	223.243697188	0.0
0.3891	224.601487216	0.0
0.3994	225.967052221	0.0
0.4096	227.313898483	0.0
0.4198	228.65533246	0.0
0.4301	230.004447756	0.0
0.4403	231.335069796	0.0
0.4506	232.673311243	0.0
0.4608	233.99320849	0.0
0.471	235.307801746	0.0
0.4813	236.629922626	0.0
0.4915	237.933920281	1.0
0.5018	239.245384888	0.0
0.512	240.538872342	0.0
0.5222	241.827161933	0.0
0.5325	243.122828528	0.0
0.5427	244.400734525	0.0
0.553	245.685958067	0.0
0.5632	246.953564161	0.0
0.5734	248.216076397	0.0
0.5837	249.48581803	0.0
0.5939	250.738154436	0.0
0.6042	251.997661971	0.0
0.6144	253.239904565	0.0
0.6246	254.477155224	0.0
0.6349	255.721490626	0.0
0.6451	256.948769063	0.0
0.6554	258.183075142	0.0
0.6656	259.400461734	1.0
0.6758	260.612956273	0.0
0.6861	261.832393798	1.0
0.6963	263.03511565	0.0
0.7066	264.244724528	0.0
0.7168	265.43775246	0.0
0.727	266.625986225	0.0
0.7373	267.821024054	1.0
0.7475	268.999680673	0.0
0.7578	270.185086515	1.0
0.768	271.35424318	0.0
0.7782	272.518701604	0.0
0.7885	273.68982795	0.0
0.7987	274.844900857	0.0
0.809	276.006587941	0.0
0.8192	277.152350978	0.0
0.8294	278.293509781	0.0
0.8397	279.441203088	0.0
0.8499	280.573164168	0.0
0.8602	281.711607084	0.0
0.8704	282.834444576	0.0
0.8806	283.952769959	0.0
0.8909	285.077499098	0.0
0.9011	286.186810796	0.0
0.9114	287.302474634	1.0
0.9216	288.402845297	0.0
0.9318	289.498794135	0.0
0.9421	290.601018595	0.0
0.9523	291.688134102	1.0
0.9626	292.781474649	0.0
0.9728	293.859828021	0.0
0.983	294.933848045	0.0
0.9933	296.014018122	0.0
1.0035	297.07938156	0.0
1.0138	298.150845483	0.0
1.024	299.207622108	0.0
1.0342	300.260152091	0.0
1.0445	301.31870907	0.0
1.0547	302.362755677	0.0
1.065	303.412780703	0.0
1.0752	304.44841231	0.0
1.0854	305.479882245	0.0
1.0957	306.517258583	0.0
1.1059	307.540414887	0.0
1.1162	308.569429987	0.0
1.1264	309.584339666	0.0
1.1366	310.595170944	2.0
1.1469	311.611790443	0.0
1.1571	312.614474436	0.0
1.1674	313.622899998	0.0
1.1776	314.617502374	0.0
1.1878	315.608107952	0.0
1.1981	316.604385936	0.0
1.2083	317.587007249	0.0
1.2186	318.575255248	1.0
1.2288	319.549956648	0.0
1.239	320.520741224	1.0
1.2493	321.497084705	2.0
1.2595	322.460044772	2.0
1.2698	323.42851894	0.0
1.28	324.383717563	2.0
1.2902	325.335077733	1.0
1.3005	326.291885581	0.0
1.3107	327.235577802	3.0
1.321	328.184673794	1.0
1.3312	329.12075987	3.0
1.3414	330.053084297	2.0
1.3517	330.9907474	2.0
1.3619	331.915557306	1.0
1.3722	332.845662858	0.0
1.3824	333.763018811	3.0
1.3926	334.67668838	4.0
1.4029	335.595589804	3.0
1.4131	336.501895211	4.0
1.4234	337.413390304	2.0
1.4336	338.312390903	3.0
1.4438	339.20777888	5.0
1.4541	340.108294027	1.0
1.4643	340.99646519	3.0
1.4746	341.889722199	0.0
1.4848	342.770734717	5.0
1.495	343.648206897	1.0
1.5053	344.530703658	4.0
1.5155	345.401103426	7.0
1.5258	346.276487277	6.0
1.536	347.139871636	9.0
1.5462	347.999786496	8.0
1.5565	348.8646254	5.0
1.5667	349.71760936	5.0
1.577	350.575477676	5.0
1.5872	351.421586598	6.0
1.5974	352.264295442	11.0
1.6077	353.111829805	14.0
1.6179	353.947746429	8.0
1.6282	354.788449679	9.0
1.6384	355.617628827	8.0
1.6486	356.44347593	7.0
1.6589	357.274051999	13.0
1.6691	358.093242787	8.0
1.6794	358.917124425	13.0
1.6896	359.729712548	17.0
1.6998	360.539035296	17.0
1.7101	361.352992387	20.0
1.7203	362.155792006	16.0
1.7306	362.963188616	18.0
1.7408	363.759517683	24.0
1.751	364.552646711	23.0
1.7613	365.350317355	23.0
1.7715	366.137053775	32.0
1.7818	366.928295206	26.0
1.792	367.708690543	27.0
1.8022	368.485949871	38.0
1.8125	369.267659942	24.0
1.8227	370.038654572	32.0
1.833	370.814064072	27.0
1.8432	371.578844497	33.0
1.8534	372.340551662	42.0
1.8637	373.106620515	47.0
1.8739	373.862188332	42.0
1.8842	374.622082681	52.0
1.8944	375.371560633	63.0
1.9046	376.118026817	57.0
1.9149	376.868767416	68.0
1.9251	377.609217095	61.0
1.9354	378.353906736	71.0
1.9456	379.088388402	62.0
1.9558	379.819918562	67.0
1.9661	380.555637611	77.0
1.9763	381.281271649	111.0
1.9866	382.011060813	89.0
1.9968	382.730846253	89.0
2.007	383.447739243	101.0
2.0173	384.168737307	88.0
2.0275	384.879852151	96.0
2.0378	385.595038981	84.0
2.048	386.300422251	108.0
2.0582	387.002970947	122.0
2.0685	387.709542577	133.0
2.0787	388.406428741	138.0
2.089	389.107305415	108.0
2.0992	389.798574688	124.0
2.1094	390.487066104	132.0
2.1197	391.179499959	157.0
2.1299	391.862442145	162.0
2.1402	392.549294994	153.0
2.1504	393.226732676	172.0
2.1606	393.901448084	175.0
2.1709	394.580027046	170.0
2.1811	395.249304258	168.0
2.1914	395.922413885	164.0
2.2016	396.586296733	188.0
2.2118	397.247511776	183.0
2.2221	397.912513068	219.0
2.2323	398.568398728	187.0
2.2426	399.22804012	167.0
2.2528	399.878639352	220.0
2.263	400.526624159	199.0
2.2733	401.178319456	211.0
2.2835	401.821081516	209.0
2.2938	402.467524159	228.0
2.304	403.105105566	228.0
2.3142	403.740124861	213.0
2.3245	404.378780402	208.0
2.3347	405.008681451	246.0
2.345	405.642189439	209.0
2.3552	406.267013495	196.0
2.3654	406.889326703	190.0
2.3757	407.515203401	219.0
2.3859	408.132500775	216.0
2.3962	408.753332916	210.0
2.4064	409.365654883	200.0
2.4166	409.975516241	196.0
2.4269	410.588869787	193.0
2.4371	411.193815672	175.0
2.4474	411.802225598	196.0
2.4576	412.402295629	149.0
2.4678	412.999954286	171.0
2.4781	413.601035256	163.0
2.4883	414.193876793	157.0
2.4986	414.790113059	141.0
2.5088	415.378176303	144.0
2.519	415.963876422	140.0
2.5293	416.552930377	143.0
2.5395	417.133909762	117.0
2.5498	417.718215951	139.0
2.56	418.294512651	111.0
2.5702	418.86849351	104.0
2.5805	419.445761099	124.0
2.5907	420.015115681	97.0
2.601	420.587730502	119.0
2.6112	421.152496095	94.0
2.6214	421.714992185	108.0
2.6317	422.28070924	118.0
2.6419	422.83867162	112.0
2.6522	423.399829004	111.0
2.6624	423.953294216	105.0
2.6726	424.504535335	96.0
2.6829	425.058932971	112.0
2.6931	425.605731095	128.0
2.7034	426.155660294	119.0
2.7136	426.698051234	115.0
2.7238	427.238262583	111.0
2.7341	427.781567289	112.0
2.7443	428.317424543	117.0
2.7546	428.856350222	121.0
2.7648	429.387888474	125.0
2.775	429.917290747	138.0
2.7853	430.449724483	124.0
2.7955	430.974859781	141.0
2.8058	431.503002109	129.0
2.816	432.023904825	149.0
2.8262	432.5427143	143.0
2.8365	433.064494582	129.0
2.8467	433.579122461	155.0
2.857	434.096697202	155.0
2.8672	434.607177188	157.0
2.8774	435.115605816	168.0
2.8877	435.626945809	162.0
2.8979	436.131276511	155.0
2.9082	436.638495111	180.0
2.9184	437.138760915	156.0
2.9286	437.637016407	182.0
2.9389	438.13812501	196.0
2.9491	438.632364571	177.0
2.9594	439.129434246	169.0
2.9696	439.619690244	181.0
2.9798	440.107976154	175.0
2.9901	440.599058086	179.0
3.0003	441.08340842	198.0
3.0106	441.57053224	194.0
3.0208	442.050978716	169.0
3.031	442.529494525	207.0
3.0413	443.010750411	218.0
3.0515	443.48540939	203.0
3.0618	443.962786361	227.0
3.072	444.433619596	208.0
3.0822	444.902560794	204.0
3.0925	445.374187242	194.0
3.1027	445.839348781	202.0
3.113	446.307173927	225.0
3.1232	446.768586271	211.0
3.1334	447.228144435	217.0
3.1437	447.690334121	195.0
3.1539	448.146188254	204.0
3.1642	448.604652698	211.0
3.1744	449.056832653	178.0
3.1846	449.507195529	184.0
3.1949	449.960137273	205.0
3.2051	450.406870231	226.0
3.2154	450.856161271	188.0
3.2256	451.299293568	199.0
3.2358	451.740645144	199.0
3.2461	452.184523987	177.0
3.2563	452.622318276	167.0
3.2666	453.062619463	204.0
3.2768	453.496885136	185.0
3.287	453.929405719	184.0
3.2973	454.364403001	196.0
3.3075	454.793437474	148.0
3.3178	455.224928685	186.0
3.328	455.650505147	151.0
3.3382	456.074371436	172.0
3.3485	456.500664867	171.0
3.3587	456.9211148	187.0
3.369	457.343972313	166.0
3.3792	457.761033426	157.0
3.3894	458.176418584	202.0
3.3997	458.594182321	171.0
3.4099	459.006219481	175.0
3.4202	459.420616048	160.0
3.4304	459.829332195	176.0
3.4406	460.236405921	183.0
3.4509	460.645810633	171.0
3.4611	461.049603351	166.0
3.4714	461.455708268	168.0
3.4816	461.856246423	175.0
3.4918	462.255175021	176.0
3.5021	462.656387963	170.0
3.5123	463.052101203	157.0
3.5226	463.450080375	149.0
3.5328	463.842604172	153.0
3.543	464.233550617	142.0
3.5533	464.6267357	134.0
3.5635	465.014531123	168.0
3.5738	465.404547139	159.0
3.584	465.789216937	152.0
3.5942	466.172340944	158.0
3.6045	466.557658795	176.0
3.6147	466.937694829	159.0
3.625	467.319907024	173.0
3.6352	467.696879973	157.0
3.6454	468.072338061	161.0
3.6557	468.449946097	175.0
3.6659	468.822377998	172.0
3.6762	469.196942519	168.0
3.6864	469.566372625	173.0
3.6966	469.934318181	146.0
3.7069	470.304370666	163.0
3.7171	470.669350587	176.0
3.7274	471.036420455	162.0
3.7376	471.398458643	129.0
3.7478	471.759041985	138.0
3.7581	472.121690099	188.0
3.7683	472.479367145	169.0
3.7786	472.839092321	161.0
3.7888	473.193886495	144.0
3.799	473.547254934	144.0
3.8093	473.90264683	159.0
3.8195	474.253167125	142.0
3.8298	474.605694568	149.0
3.84	474.953389674	154.0
3.8502	475.299687572	160.0
3.8605	475.647968441	150.0
3.8707	475.991475183	184.0
3.881	476.336948913	141.0
3.8912	476.677686996	130.0
3.9014	477.017055828	144.0
3.9117	477.358367953	169.0
3.9219	477.695001477	159.0
3.9322	478.033562631	149.0
3.9424	478.367482894	150.0
3.9526	478.700061303	148.0
3.9629	479.034544122	178.0
3.9731	479.364441953	161.0
3.9834	479.696228846	148.0
3.9936	480.023467706	148.0
4.0038	480.349391561	154.0
4.0141	480.677181721	148.0
4.0243	481.000478635	145.0
4.0346	481.325626812	126.0
4.0448	481.646317957	146.0
4.055	481.96572041	149.0
4.0653	482.286951824	141.0
4.0755	482.603779898	147.0
4.0858	482.922422192	148.0
4.096	483.236696636	148.0
4.1062	483.549708173	123.0
4.1165	483.864512076	140.0
4.1267	484.175000744	155.0
4.137	484.487267332	151.0
4.1472	484.795253467	145.0
4.1574	485.102001963	114.0
4.1677	485.410506962	138.0
4.1779	485.714783069	136.0
4.1882	486.020801523	139.0
4.1984	486.32262517	129.0
4.2086	486.623235943	139.0
4.2189	486.925568073	157.0
4.2291	487.223755927	125.0
4.2394	487.523651265	138.0
4.2496	487.81943573	141.0
4.2598	488.114031588	154.0
4.2701	488.410314362	163.0
4.2803	488.702535783	135.0
4.2906	488.996430522	119.0
4.3008	489.286296642	141.0
4.311	489.57499794	137.0
4.3213	489.865352398	142.0
4.3315	490.151726767	138.0
4.3418	490.439740974	126.0
4.352	490.72380717	147.0
4.3622	491.00673185	143.0
4.3725	491.291276613	138.0
4.3827	491.571920924	134.0
4.393	491.854172261	113.0
4.4032	492.132554583	118.0
4.4134	492.40981823	142.0
4.4237	492.688669544	155.0
4.4339	492.96369845	121.0
4.4442	493.240302226	127.0
4.4544	493.513114404	142.0
4.4646	493.784830289	114.0
4.4749	494.058102073	164.0
4.4851	494.327627932	121.0
4.4954	494.59869715	120.0
4.5056	494.866050635	159.0
4.5158	495.132329763	131.0
4.5261	495.400133659	130.0
4.5363	495.664266582	131.0
4.5466	495.929911982	133.0
4.5568	496.191915998	133.0
4.567	496.452867153	142.0
4.5773	496.715312568	135.0
4.5875	496.974160461	143.0
4.5978	497.234490569	124.0
4.608	497.491252152	122.0
4.6182	497.746981942	137.0
4.6285	498.004176092	124.0
4.6387	498.257844704	126.0
4.649	498.512965873	116.0
4.6592	498.76458992	115.0
4.6694	499.015202819	132.0
4.6797	499.267250777	138.0
4.6899	499.51584374	149.0
4.7002	499.765860196	131.0
4.7104	500.012449503	105.0
4.7206	500.258047894	144.0
4.7309	500.505052631	133.0
4.7411	500.748671503	127.0
4.7514	500.993685386	139.0
4.7616	501.235340693	133.0
4.7718	501.476024912	121.0
4.7821	501.718087337	137.0
4.7923	501.956831645	135.0
4.8026	502.19694305	103.0
4.8128	502.433763083	119.0
4.823	502.669631457	120.0
4.8333	502.906850461	138.0
4.8435	503.140817739	144.0
4.8538	503.376124761	130.0
4.864	503.608206267	137.0
4.8742	503.839355157	118.0
4.8845	504.071827651	132.0
4.8947	504.301113484	110.0
4.905	504.531712253	116.0
4.9152	504.759150046	111.0
4.9254	504.985673883	131.0
4.9357	505.213494841	110.0
4.9459	505.438192899	89.0
4.9562	505.664177623	110.0
4.9664	505.887064618	126.0
4.9766	506.109055945	122.0
4.9869	506.332318438	90.0
4.9971	506.552520519	98.0
5.0074	506.77398352	91.0
5.0176	506.992410774	106.0
5.0278	507.209960282	88.0
5.0381	507.428755522	74.0
5.0483	507.644551584	99.0
5.0586	507.861583337	88.0
5.0688	508.075640086	83.0
5.079	508.28883665	102.0
5.0893	508.503254021	99.0
5.0995	508.714732225	82.0
5.1098	508.927421395	78.0
5.12	509.137195088	81.0
5.1302	509.346125807	86.0
5.1405	509.556252906	67.0
5.1507	509.763499647	94.0
5.161	509.971933125	91.0
5.1712	510.177509461	84.0
5.1814	510.382259691	80.0
5.1917	510.588182361	54.0
5.2019	510.791282307	79.0
5.2122	510.995545244	53.0
5.2224	511.197008208	60.0
5.2326	511.397661596	65.0
5.2429	511.599463964	55.0
5.2531	511.798500089	69.0
5.2634	511.998675933	53.0
5.2736	512.196107829	60.0
5.2838	512.392746348	61.0
5.2941	512.590510858	54.0
5.3043	512.785564473	49.0
5.3146	512.981735004	46.0
5.3248	513.17521649	57.0
5.335	513.367920473	42.0
5.3453	513.561727918	48.0
5.3555	513.75287871	43.0
5.3658	513.94512407	54.0
5.376	514.134734189	34.0
5.3862	514.323582363	40.0
5.3965	514.513511919	45.0
5.4067	514.700837979	36.0
5.417	514.889236706	34.0
5.4272	515.075052921	43.0
5.4374	515.260122436	36.0
5.4477	515.446251697	31.0
5.4579	515.629829554	41.0
5.4682	515.814458615	25.0
5.4784	515.996556838	32.0
5.4886	516.177923302	25.0
5.4989	516.360328306	36.0
5.5091	516.540232959	28.0
5.5194	516.721167781	25.0
5.5296	516.899622405	22.0
5.5398	517.077359912	29.0
5.5501	517.256115178	32.0
5.5603	517.432420123	21.0
5.5706	517.609734625	21.0
5.5808	517.784618555	19.0
5.591	517.958799716	19.0
5.6013	518.133978273	21.0
5.6115	518.306755536	14.0
5.6218	518.480522156	19.0
5.632	518.651906838	16.0
5.6422	518.822602812	7.0
5.6525	518.994276225	23.0
5.6627	519.163596392	13.0
5.673	519.33388612	14.0
5.6832	519.50184157	16.0
5.6934	519.669122092	13.0
5.7037	519.837360496	13.0
5.7139	520.00329274	9.0
5.7242	520.170175145	8.0
5.7344	520.334769978	11.0
5.7446	520.498703388	13.0
5.7549	520.663575514	7.0
5.7651	520.826187624	15.0
5.7754	520.989730883	11.0
5.7856	521.151032342	6.0
5.7958	521.311685612	10.0
5.8061	521.473258816	7.0
5.8163	521.632617224	5.0
5.8266	521.792888149	5.0
5.8368	521.950962131	5.0
5.847	522.108400894	9.0
5.8573	522.266741183	5.0
5.8675	522.422910992	5.0
5.8778	522.579975061	5.0
5.888	522.734886144	4.0
5.8982	522.889174719	13.0
5.9085	523.044346781	6.0
5.9187	523.197391792	4.0
5.929	523.35131317	5.0
5.9392	523.503124641	1.0
5.9494	523.654326059	5.0
5.9597	523.806393287	7.0
5.9699	523.956376024	4.0
5.9802	524.107217592	5.0
5.9904	524.255991471	5.0
6.0006	524.404167504	2.0
6.0109	524.553192022	4.0
6.0211	524.700173758	0.0
6.0314	524.847997141	4.0
6.0416	524.993794207	4.0
6.0518	525.139005389	0.0
6.0621	525.28504808	4.0
6.0723	525.429088862	3.0
6.0826	525.57395445	3.0
6.0928	525.716834266	2.0
6.103	525.859139921	2.0
6.1133	526.002260446	3.0
6.1235	526.14341912	5.0
6.1338	526.285386096	1.0
6.144	526.425407033	6.0
6.1542	526.564865298	4.0
6.1645	526.705122128	4.0
6.1747	526.843456361	1.0
6.185	526.982582724	3.0
6.1952	527.119801985	3.0
6.2054	527.256469832	2.0
6.2157	527.393920267	5.0
6.2259	527.529486574	5.0
6.2362	527.66582916	2.0
6.2464	527.800302805	4.0
6.2566	527.934236068	1.0
6.2669	528.068936261	1.0
6.2771	528.201790024	4.0
6.2874	528.335404535	1.0
6.2976	528.467187499	0.0
6.3078	528.598440896	0.0
6.3181	528.730445875	3.0
6.3283	528.860641371	1.0
6.3386	528.991582392	2.0
6.3488	529.120728514	3.0
6.359	529.249355665	1.0
6.3693	529.37871936	1.0
6.3795	529.506309777	2.0
6.3898	529.634630802	1.0
6.4	529.761192843	2.0
6.4102	529.887246295	4.0
6.4205	530.014021555	2.0
6.4307	530.139059019	1.0
6.441	530.264812472	2.0
6.4512	530.388842136	3.0
6.4614	530.512373388	0.0
6.4717	530.636612004	1.0
6.4819	530.759147596	2.0
6.4922	530.882384852	3.0
6.5024	531.003932809	0.0
6.5126	531.124992327	1.0
6.5229	531.246745056	2.0
6.5331	531.366828836	1.0
6.5434	531.48760024	1.0
6.5536	531.606716147	1.0
6.5638	531.725353388	2.0
6.5741	531.84466997	1.0
6.5843	531.962350997	2.0
6.5946	532.080705889	5.0
6.6048	532.197438408	0.0
6.615	532.31370184	1.0
6.6253	532.430631019	0.0
6.6355	532.545957368	1.0
6.6458	532.6619441	1.0
6.656	532.776340921	1.0
6.6662	532.890278041	0.0
6.6765	533.004867586	1.0
6.6867	533.117886374	1.0
6.697	533.23155233	1.0
6.7072	533.343660188	1.0
6.7174	533.455317542	3.0
6.7277	533.567614269	1.0
6.7379	533.678371666	1.0
6.7482	533.789763283	0.0
6.7584	533.899627977	0.0
6.7686	534.009051182	0.0
6.7789	534.119100966	2.0
6.7891	534.227642221	0.0
6.7994	534.336805005	0.0
6.8096	534.44447142	2.0
6.8198	534.551705178	4.0
6.8301	534.659552979	2.0
6.8403	534.765922435	0.0
6.8506	534.872900983	1.0
6.8608	534.978413103	4.0
6.871	535.083501224	1.0
6.8813	535.1891911	0.0
6.8915	535.293432212	0.0
6.9018	535.39827023	2.0
6.912	535.50167116	2.0
6.9222	535.604656575	1.0
6.9325	535.708231705	1.0
6.9427	535.810387059	0.0
6.953	535.913127375	0.0
6.9632	536.014459359	0.0
6.9734	536.115384141	1.0
6.9837	536.216886839	2.0
6.9939	536.316998169	1.0
7.0042	536.417682756	0.0
7.0144	536.516987191	0.0
7.0246	536.615892571	6.0
7.0349	536.715364304	1.0
7.0451	536.813472509	2.0
7.0554	536.912142501	1.0
7.0656	537.009459955	0.0
7.0758	537.106386341	1.0
7.0861	537.203867746	0.0
7.0963	537.300012906	1.0
7.1066	537.396708612	2.0
7.1168	537.492078844	0.0
7.127	537.587065832	3.0
7.1373	537.682596734	1.0
7.1475	537.776818128	0.0
7.1578	537.871579052	1.0
7.168	537.965041023	0.0
7.1782	538.058127418	1.0
7.1885	538.151746845	0.0
7.1987	538.244082965	1.0
7.209	538.33694782	1.0
7.2192	538.428539713	1.0
7.2294	538.519763544	0.0
7.2397	538.611509742	2.0
7.2499	538.701998311	2.0
7.2602	538.793005036	1.0
7.2704	538.882764268	1.0
7.2806	538.972162805	0.0
7.2909	539.062073255	2.0
7.3011	539.15075124	2.0
7.3114	539.239937013	1.0
7.3216	539.327900256	1.0
7.3318	539.415510019	0.0
7.3421	539.503621453	3.0
7.3523	539.590525083	3.0
7.3626	539.67792634	1.0
7.3728	539.764129528	2.0
7.383	539.849986309	2.0
7.3933	539.936334723	1.0
7.4035	540.021499501	0.0
7.4138	540.107151948	3.0
7.424	540.191630298	2.0
7.4342	540.275769174	2.0
7.4445	540.360389845	1.0
7.4547	540.443850562	2.0
7.465	540.527789191	2.0
7.4752	540.610577216	0.0
7.4854	540.693032559	0.0
7.4957	540.775960057	0.0
7.5059	540.85775081	2.0
7.5162	540.940009914	1.0
7.5264	541.021141436	2.0
7.5366	541.101946931	0.0
7.5469	541.183215135	2.0
7.5571	541.263369339	1.0
7.5674	541.343982522	2.0
7.5776	541.423490685	0.0
7.5878	541.502679345	4.0
7.5981	541.582321455	1.0
7.6083	541.660871856	2.0
7.6186	541.739872052	0.0
7.6288	541.817789338	2.0
7.639	541.895393514	0.0
7.6493	541.973442067	0.0
7.6595	542.050420755	0.0
7.6698	542.127840238	0.0
7.68	542.204198478	1.0
7.6902	542.280249875	2.0
7.7005	542.356736756	1.0
7.7107	542.432175179	1.0
7.721	542.508045577	3.0
7.7312	542.582875968	3.0
7.7414	542.657405653	2.0
7.7517	542.73236211	0.0
7.7619	542.806291088	1.0
7.7722	542.880643397	0.0
7.7824	542.953976508	1.0
7.7926	543.027014931	1.0
7.8029	543.100471586	1.0
7.8131	543.17292132	1.0
7.8234	543.245785916	0.0
7.8336	543.317651707	0.0
7.8438	543.389228705	0.0
7.8541	543.461215568	0.0
7.8643	543.532215657	0.0
7.8746	543.603622307	0.0
7.8848	543.674050137	0.0
7.895	543.744194953	0.0
7.9053	543.814741432	4.0
