TL-DOS Lehrstuhlversuch
detector=R1408305
job_number=2016-01-04-001
irradiation_dose [mSv]=unknown

[BEGIN DATA]            
time [sec]       temperature [K]         photoncount 
0       291.15  0.0
0.0102  292.012644253   0.0
0.0205  292.881068048   2.0
0.0307  293.7384169254  0.0
0.041   294.601509867   0.0
0.0512  295.4535958747  3.0
0.0614  296.3030753325  1.0
0.0717  297.1582461309  2.0
0.0819  298.0025110257  1.0
0.0922  298.8524323246  0.0
0.1024  299.6915146663  0.0
0.1126  300.5280302365  0.0
0.1229  301.3701502919  1.0
0.1331  302.2015308785  0.0
0.1434  303.038481547   0.0
0.1536  303.8647586713  1.0
0.1638  304.6885081955  1.0
0.1741  305.517776675   0.0
0.1843  306.3364695806  3.0
0.1946  307.160647563   0.0
0.2048  307.9743148901  0.0
0.215   308.7854931908  1.0
0.2253  309.602106222   0.0
0.2355  310.4083050729  1.0
0.2458  311.2199052931  0.0
0.256   312.0211552607  0.0
0.2662  312.819954187   0.0
0.2765  313.6241049045  0.0
0.2867  314.4180003722  0.0
0.297   315.2172147791  0.0
0.3072  316.0062368884  0.0
0.3174  316.7928453616  0.0
0.3277  317.5847239525  0.0
0.3379  318.3665037987  0.0
0.3482  319.1535214118  1.0
0.3584  319.9305022719  0.0
0.3686  320.7051063302  1.0
0.3789  321.4849000791  1.0
0.3891  322.2547492001  0.0
0.3994  323.0297561546  1.0
0.4096  323.7948795266  0.0
0.4198  324.5576623692  0.0
0.4301  325.3255557027  0.0
0.4403  326.083656173   0.0
0.4506  326.8468357631  0.0
0.4608  327.6002826039  1.0
0.471   328.3514246342  0.0
0.4813  329.1075991642  0.0
0.4915  329.8541302796  0.0
0.5018  330.6056630026  1.0
0.512   331.3476115076  0.0
0.5222  332.0872903756  0.0
0.5325  332.8319249425  0.0
0.5427  333.5670632629  0.0
0.553   334.3071268613  0.0
0.5632  335.0377525062  0.0
0.5734  335.7661431511  1.0
0.5837  336.4994138661  0.0
0.5939  337.2233332565  0.0
0.6042  337.9521027604  1.0
0.6144  338.6715783433  0.0
0.6246  339.3888530343  0.0
0.6349  340.1109333208  0.0
0.6451  340.8238049931  0.0
0.6554  341.5414527615  0.0
0.6656  342.2499484431  0.0
0.6758  342.9562768207  0.0
0.6861  343.6673374556  0.0
0.6963  344.3693300088  0.0
0.7066  345.0760257702  0.0
0.7168  345.7737091146  0.0
0.727   346.4692582302  0.0
0.7373  347.1694673842  0.0
0.7475  347.8607468443  0.0
0.7578  348.556657737   0.0
0.768   349.243693751   0.0
0.7782  349.9286281066  0.0
0.7885  350.618151384   0.0
0.7987  351.2988812432  0.0
0.809   351.9841718549  0.0
0.8192  352.6607230273  1.0
0.8294  353.3352046146  0.0
0.8397  354.0142050921  0.0
0.8499  354.6845463478  0.0
0.8602  355.3593787543  0.0
0.8704  356.0256050939  0.0
0.8806  356.6897934324  0.0
0.8909  357.3584316984  0.0
0.9011  358.0185428907  0.0
0.9114  358.6830766946  0.0
0.9216  359.3391357685  0.0
0.9318  359.9931879431  0.0
0.9421  360.6516221351  0.0
0.9523  361.3016593849  0.0
0.9626  361.9560517528  0.0
0.9728  362.6020987234  0.0
0.983   363.246169422   0.0
0.9933  363.8945552641  0.0
1.0035  364.5346723095  1.0
1.0138  365.1790780097  0.0
1.024   365.8152656715  0.0
1.0342  366.4495072212  0.0
1.0445  367.087998061   0.0
1.0547  367.7183462941  0.0
1.065   368.3529177329  1.0
1.0752  368.9793965486  0.0
1.0854  369.6039589518  0.0
1.0957  370.2327057968  0.0
1.1059  370.8534342992  0.0
1.1162  371.478321557   0.0
1.1264  372.0952396932  0.0
1.1366  372.710270663   0.0
1.1469  373.3294222161  0.0
1.1571  373.9406777943  0.0
1.1674  374.5560286613  3.0
1.1776  375.1635320231  0.0
1.1878  375.7691770188  0.0
1.1981  376.3788797134  0.0
1.2083  376.9808069335  0.0
1.2186  377.5867669442  0.0
1.2288  378.1849992105  0.0
1.239   378.781401471   0.0
1.2493  379.3817995061  0.0
1.2595  379.9745407279  0.0
1.2698  380.5712531961  1.0
1.28    381.1603558528  0.0
1.2902  381.7476564313  0.0
1.3005  382.338891805   0.0
1.3107  382.922587216   0.0
1.321   383.5101932681  0.0
1.3312  384.0903056419  0.0
1.3414  384.6686434391  0.0
1.3517  385.2508559826  0.0
1.3619  385.8256436306  0.0
1.3722  386.4042822396  1.0
1.3824  386.975541531   0.0
1.3926  387.5450533276  0.0
1.4029  388.1183807381  0.0
1.4131  388.6843965643  0.0
1.4234  389.254204582   0.0
1.4336  389.8167458979  0.0
1.4438  390.3775663873  0.0
1.4541  390.9421442607  0.0
1.4643  391.4995221316  0.0
1.4746  392.0606343215  1.0
1.4848  392.6145907066  0.0
1.495   393.1668525267  0.0
1.5053  393.7228143894  0.0
1.5155  394.2716861287  0.0
1.5258  394.8242351978  0.0
1.536   395.3697376664  0.0
1.5462  395.9135714309  0.0
1.5565  396.4610487717  0.0
1.5667  397.0015441914  0.0
1.577   397.545660821   0.0
1.5872  398.0828383884  0.0
1.5974  398.6183727176  0.0
1.6077  399.1574950186  0.0
1.6179  399.6897419494  0.0
1.6282  400.225554827   0.0
1.6384  400.7545345391  0.0
1.6486  401.2818960906  0.0
1.6589  401.8127908579  0.0
1.6691  402.3369151798  0.0
1.6794  402.8645510287  0.0
1.6896  403.385457993   0.0
1.6998  403.9047714913  1.0
1.7101  404.427564285   1.0
1.7203  404.943689957   0.0
1.7306  405.4632735667  1.0
1.7408  405.9762309811  0.0
1.751   406.4876192474  1.0
1.7613  407.0024337117  0.0
1.7715  407.510682801   1.0
1.7818  408.0223370566  1.0
1.792   408.527466239   0.0
1.8022  409.03105022    0.0
1.8125  409.5380081119  0.0
1.8227  410.038500823   0.0
1.833   410.542346734   1.0
1.8432  411.039767151   1.0
1.8534  411.5356659478  0.0
1.8637  412.0348871664  2.0
1.8739  412.527741869   0.0
1.8842  413.0238985986  0.0
1.8944  413.5137278933  0.0
1.9046  414.0020587894  1.0
1.9149  414.4936614038  0.0
1.9251  414.9789946615  0.0
1.9354  415.467579554   0.0
1.9456  415.9499335745  1.0
1.9558  416.4308120634  0.0
1.9661  416.914912341   0.0
1.9763  417.3928389384  0.0
1.9866  417.8739675474  0.0
1.9968  418.3489603737  1.0
2.007   418.8225001865  1.0
2.0173  419.2992126202  0.0
2.0275  419.7698455902  0.0
2.0378  420.243631706   0.0
2.048   420.7113756771  0.0
2.0582  421.177688809   0.0
2.0685  421.6471261446  0.0
2.0787  422.1105767951  0.0
2.089   422.5771324713  0.0
2.0992  423.0377382118  0.0
2.1094  423.4969349491  0.0
2.1197  423.9592082118  2.0
2.1299  424.4155861519  0.0
2.1402  424.8750217321  0.0
2.1504  425.3285981784  0.0
2.1606  425.7807871243  0.0
2.1709  426.2360056447  0.0
2.1811  426.6854188111  1.0
2.1914  427.1378429548  0.0
2.2016  427.5844973808  0.0
2.2118  428.029785481   1.0
2.2221  428.4780569215  0.0
2.2323  428.9206116033  0.0
2.2426  429.3661313119  0.0
2.2528  429.8059693545  0.0
2.263   430.2444619227  3.0
2.2733  430.6858923024  2.0
2.2835  431.1216931668  0.0
2.2938  431.5604138089  0.0
2.304   431.9935394926  2.0
2.3142  432.4253402352  2.0
2.3245  432.8600339556  1.0
2.3347  433.2891840724  1.0
2.345   433.7212094083  1.0
2.3552  434.1477251704  0.0
2.3654  434.5729362113  0.0
2.3757  435.0009960802  3.0
2.3859  435.4235969464  0.0
2.3962  435.849029153   3.0
2.4064  436.2690358673  1.0
2.4166  436.6877577717  1.0
2.4269  437.1092850283  0.0
2.4371  437.5254365919  0.0
2.4474  437.9443762868  1.0
2.4576  438.3579732878  2.0
2.4678  438.7703050863  0.0
2.4781  439.1853994245  0.0
2.4883  439.5952001082  0.0
2.4986  440.0077463736  0.0
2.5088  440.4150314796  1.0
2.519   440.8210706916  1.0
2.5293  441.2298302841  0.0
2.5395  441.6333770084  2.0
2.5498  442.0396274142  1.0
2.56    442.4406969511  0.0
2.5702  442.8405396075  0.0
2.5805  443.2430611287  0.0
2.5907  443.6404493353  1.0
2.601   444.0404999624  0.0
2.6112  444.4354487859  2.0
2.6214  444.8291894521  2.0
2.6317  445.2255681012  0.0
2.6419  445.6168917749  0.0
2.6522  446.0108372381  2.0
2.6624  446.3997587562  0.0
2.6726  446.7874905546  0.0
2.6829  447.1778200778  2.0
2.6931  447.5631717694  0.0
2.7034  447.9511052395  0.0
2.7136  448.3340914347  3.0
2.7238  448.7159060666  0.0
2.7341  449.1002787793  1.0
2.7443  449.4797496272  1.0
2.7546  449.861762853   0.0
2.7648  450.2389043042  0.0
2.775   450.6148920713  1.0
2.7853  450.9933988804  2.0
2.7955  451.3670786319  1.0
2.8058  451.7432619622  1.0
2.816   452.1146478659  1.0
2.8262  452.4848976918  1.0
2.8365  452.8576281168  0.0
2.8467  453.2256051497  0.0
2.857   453.5960475543  3.0
2.8672  453.9617657458  1.0
2.8774  454.3263651972  0.0
2.8877  454.6934073913  2.0
2.8979  455.0557687347  2.0
2.9082  455.4205578258  4.0
2.9184  455.7806947999  1.0
2.9286  456.139730107   1.0
2.9389  456.5011708781  1.0
2.9491  456.8580022329  4.0
2.9594  457.2172242856  1.0
2.9696  457.5718652172  3.0
2.9798  457.9254212943  3.0
2.9901  458.2813461256  2.0
3.0003  458.6327318849  4.0
3.0106  458.9864718577  0.0
3.0208  459.3357006217  2.0
3.031   459.6838610872  1.0
3.0413  460.0343541574  3.0
3.0515  460.3803774262  0.0
3.0618  460.7287189809  2.0
3.072   461.0726181724  2.0
3.0822  461.4154653685  3.0
3.0925  461.7606095716  1.0
3.1027  462.1013521868  4.0
3.113   462.4443777087  6.0
3.1232  462.783028662   2.0
3.1334  463.1206436746  1.0
3.1437  463.4605206395  1.0
3.1539  463.796063189   2.0
3.1642  464.1338538059  2.0
3.1744  464.4673366144  1.0
3.1846  464.7997992915  2.0
3.1949  465.1344894014  0.0
3.2051  465.4649112435  3.0
3.2154  465.797546845   3.0
3.2256  466.1259403796  4.0
3.2358  466.4533293511  3.0
3.2461  466.7829117625  4.0
3.2563  467.108291044   2.0
3.2666  467.4358503008  4.0
3.2768  467.7592322288  1.0
3.287   468.0816249243  2.0
3.2973  468.4061775857  1.0
3.3075  468.726591261   3.0
3.3178  469.0491516432  2.0
3.328   469.3675984466  3.0
3.3382  469.6850711142  2.0
3.3485  470.0046707845  2.0
3.3587  470.3201946337  2.0
3.369   470.6378324288  0.0
3.3792  470.9514194225  1.0
3.3894  471.2640471466  2.0
3.3997  471.5787694132  2.0
3.4099  471.8894780598  3.0
3.4202  472.2022683915  1.0
3.4304  472.5110697409  6.0
3.4406  472.81892646    1.0
3.4509  473.128845757   3.0
3.4611  473.4348126857  3.0
3.4714  473.7428295309  1.0
3.4816  474.0469182696  1.0
3.4918  474.3500767941  3.0
3.5021  474.6552664194  3.0
3.5123  474.9565639934  4.0
3.5226  475.2598802002  3.0
3.5328  475.5593282473  2.0
3.543   475.8578602761  1.0
3.5533  476.1583924092  0.0
3.5635  476.4550918875  2.0
3.5738  476.7537791922  3.0
3.584   477.0486573692  4.0
3.5942  477.3426335072  3.0
3.6045  477.6385792259  1.0
3.6147  477.9307507799  2.0
3.625   478.2248798242  5.0
3.6352  478.5152578716  4.0
3.6454  478.8047476462  5.0
3.6557  479.0961769437  2.0
3.6659  479.383889674   5.0
3.6762  479.6735300213  5.0
3.6864  479.9594766157  1.0
3.6966  480.2445484931  2.0
3.7069  480.5315302945  2.0
3.7171  480.814852247   2.0
3.7274  481.1000723993  3.0
3.7376  481.3816551689  2.0
3.7478  481.6623765706  2.0
3.7581  481.9449787489  0.0
3.7683  482.2239769313  0.0
3.7786  482.504844345   5.0
3.7888  482.7821298861  5.0
3.799   483.0585672046  3.0
3.8093  483.3368565972  4.0
3.8195  483.6115969943  3.0
3.8298  483.8881780966  0.0
3.84    484.1612319891  1.0
3.8502  484.4334506036  3.0
3.8605  484.7074930278  3.0
3.8707  484.9780406178  1.0
3.881   485.2504008218  2.0
3.8912  485.5192876448  1.0
3.9014  485.787351937   1.0
3.9117  486.0572122057  4.0
3.9219  486.3236309747  2.0
3.9322  486.5918346956  3.0
3.9424  486.8566180426  5.0
3.9526  487.1205914115  1.0
3.9629  487.3863333485  2.0
3.9731  487.6486863065  0.0
3.9834  487.9127969762  2.0
3.9936  488.1735394703  3.0
4.0038  488.4334843473  3.0
4.0141  488.6951708024  3.0
4.0243  488.9535199976  1.0
4.0346  489.2136000802  3.0
4.0448  489.4703633887  3.0
4.055   489.7263412526  2.0
4.0653  489.9840341164  2.0
4.0755  490.2384406501  2.0
4.0858  490.4945516562  4.0
4.096   490.7473965054  2.0
4.1062  490.9994678967  2.0
4.1165  491.2532281153  2.0
4.1267  491.5037521564  3.0
4.137   491.755954658   2.0
4.1472  492.0049408475  3.0
4.1574  492.2531653827  6.0
4.1677  492.5030529722  3.0
4.1779  492.7497537714  2.0
4.1882  492.998107416   4.0
4.1984  493.2432938327  3.0
4.2086  493.4877302187  2.0
4.2189  493.7338042791  3.0
4.2291  493.9767401827  2.0
4.2394  494.2213037078  3.0
4.2496  494.4627483399  3.0
4.2598  494.7034543875  4.0
4.2701  494.945773117   3.0
4.2803  495.1850015811  5.0
4.2906  495.4258328275  3.0
4.3008  495.6635927783  1.0
4.311   495.9006254162  3.0
4.3213  496.1392461248  3.0
4.3315  496.3748237285  5.0
4.3418  496.6119796545  3.0
4.352   496.8461111559  6.0
4.3622  497.0795264438  4.0
4.3725  497.3145055669  3.0
4.3827  497.546488026   4.0
4.393   497.7800247205  3.0
4.4032  498.0105831461  3.0
4.4134  498.2404362884  4.0
4.4237  498.4718294003  7.0
4.4339  498.70027158    5.0
4.4442  498.9302442762  1.0
4.4544  499.1572841547  2.0
4.4646  499.3836295131  2.0
4.4749  499.6114913397  2.0
4.4851  499.8364472683  7.0
4.4954  500.0629103562  4.0
4.5056  500.286485384   4.0
4.5158  500.5093764909  1.0
4.5261  500.7337609231  3.0
4.5363  500.9552838041  5.0
4.5466  501.1782908437  2.0
4.5568  501.3984538979  2.0
4.567   501.6179434684  2.0
4.5773  501.8389035747  1.0
4.5875  502.0570457999  3.0
4.5978  502.2766495339  4.0
4.608   502.4934526845  1.0
4.6182  502.7095926294  3.0
4.6285  502.9271806683  0.0
4.6387  503.1419938297  0.0
4.649   503.3582461959  1.0
4.6592  503.5717407183  4.0
4.6694  503.7845821563  2.0
4.6797  503.9988495888  3.0
4.6899  504.2103844913  4.0
4.7002  504.4233366348  0.0
4.7104  504.6335730219  3.0
4.7206  504.8431662913  3.0
4.7309  505.0541637932  4.0
4.7411  505.2624704661  5.0
4.7514  505.4721727516  2.0
4.7616  505.6792007258  4.0
4.7718  505.8855953969  1.0
4.7821  506.0933728705  1.0
4.7923  506.2985005798  2.0
4.8026  506.5050026032  2.0
4.8128  506.708871128   2.0
4.823   506.9121160145  0.0
4.8333  507.1167226006  0.0
4.8435  507.3187198604  0.0
4.8538  507.5220704609  1.0
4.864   507.7228277526  2.0
4.8742  507.9229709233  1.0
4.8845  508.1244550127  2.0
4.8947  508.3233695967  5.0
4.905   508.5236168681  3.0
4.9152  508.7213104071  3.0
4.9254  508.9183991972  3.0
4.9357  509.1168084423  2.0
4.9459  509.3126873952  2.0
4.9562  509.5098786974  3.0
4.9664  509.7045552396  2.0
4.9766  509.8986362619  5.0
4.9869  510.0940175879  3.0
4.9971  510.2869072362  0.0
5.0074  510.4810892063  4.0
5.0176  510.672794794   3.0
5.0278  510.86391395    1.0
5.0381  511.0563135658  1.0
5.0483  511.2462595295  2.0
5.0586  511.4374780927  2.0
5.0688  511.6262580656  4.0
5.079   511.8144605564  4.0
5.0893  512.0039239658  4.0
5.0995  512.1909711682  2.0
5.1098  512.379271549   6.0
5.12    512.5651705549  1.0
5.1302  512.7505008915  1.0
5.1405  512.937072904   1.0
5.1507  513.1212655831  1.0
5.161   513.306692316   4.0
5.1712  513.4897543211  2.0
5.1814  513.6722563355  0.0
5.1917  513.8559810765  2.0
5.2019  514.0373627952  3.0
5.2122  514.2199597347  1.0
5.2224  514.4002280345  4.0
5.2326  514.5799448897  0.0
5.2429  514.7608658114  4.0
5.2531  514.9394794676  2.0
5.2634  515.1192897992  3.0
5.2736  515.2968070284  1.0
5.2838  515.4737812285  7.0
5.2941  515.65194112    1.0
5.3043  515.8278289571  8.0
5.3146  516.0048952071  3.0
5.3248  516.1797033497  4.0
5.335   516.3539767504  1.0
5.3453  516.5294177477  2.0
5.3555  516.7026213643  3.0
5.3658  516.8769854101  0.0
5.376   517.0491258095  3.0
5.3862  517.2207396276  1.0
5.3965  517.3935032236  5.0
5.4067  517.5640635835  0.0
5.417   517.7357666634  5.0
5.4272  517.9052800319  2.0
5.4374  518.0742748553  1.0
5.4477  518.2444019098  2.0
5.4579  518.4123593518  1.0
5.4682  518.5814420747  2.0
5.4784  518.7483685034  6.0
5.4886  518.9147843005  2.0
5.4989  519.0823150497  1.0
5.5091  519.2477092968  2.0
5.5194  519.414211652   2.0
5.5296  519.57859062    4.0
5.5398  519.7424667492  0.0
5.5501  519.9074408153  2.0
5.5603  520.0703109844  3.0
5.5706  520.2342723508  2.0
5.5808  520.396142735   2.0
5.591   520.5575179541  3.0
5.6013  520.7199743546  1.0
5.6115  520.8803589656  5.0
5.6218  521.0418181211  2.0
5.632   521.2012182048  3.0
5.6422  521.3601306803  0.0
5.6525  521.5201078371  1.0
5.6627  521.6780448221  1.0
5.673   521.8370399529  0.0
5.6832  521.9940074355  4.0
5.6934  522.150494751   2.0
5.7037  522.3080305     2.0
5.7139  522.463557212   3.0
5.7242  522.6201259216  0.0
5.7344  522.7746979268  2.0
5.7446  522.9287970929  3.0
5.7549  523.0839286922  2.0
5.7651  523.2370819145  1.0
5.7754  523.3912612324  0.0
5.7856  523.5434743176  2.0
5.7958  523.6952217796  1.0
5.8061  523.8479859189  2.0
5.8163  523.9988018732  0.0
5.8266  524.1506282639  0.0
5.8368  524.3005184285  0.0
5.847   524.4499500758  1.0
5.8573  524.600382885   1.0
5.8675  524.7488972402  3.0
5.8778  524.8984066117  0.0
5.888   525.0460093057  1.0
5.8982  525.1931604799  0.0
5.9085  525.3412975372  2.0
5.9187  525.4875454181  1.0
5.929   525.6347731303  1.0
5.9392  525.7801232629  2.0
5.9494  525.9250287662  1.0
5.9597  526.0709051071  1.0
5.9699  526.2149211022  2.0
5.9802  526.3599019755  1.0
5.9904  526.5030339228  0.0
6.0006  526.6457280264  1.0
6.0109  526.7893781516  2.0
6.0211  526.9311963218  2.0
6.0314  527.0739646451  0.0
6.0416  527.2149122589  3.0
6.0518  527.3554287109  2.0
6.0621  527.4968865947  0.0
6.0723  527.6365404809  1.0
6.0826  527.7771300199  1.0
6.0928  527.9159266352  2.0
6.103   528.0542986686  1.0
6.1133  528.1935977667  0.0
6.1235  528.331120398   0.0
6.1338  528.4695644031  4.0
6.144   528.6062428463  1.0
6.1542  528.7425031871  0.0
6.1645  528.8796764447  1.0
6.1747  529.0151003461  3.0
6.185   529.1514315602  1.0
6.1952  529.2860241567  1.0
6.2054  529.4202050314  0.0
6.2157  529.5552848909  2.0
6.2259  529.6886420911  1.0
6.2362  529.8228927575  4.0
6.2464  529.9554313393  1.0
6.2566  530.0875644826  2.0
6.2669  530.2205828913  1.0
6.2771  530.3519049301  0.0
6.2874  530.4841068001  0.0
6.2976  530.6146227134  0.0
6.3078  530.7447393757  0.0
6.3181  530.8757277933  2.0
6.3283  531.0050457294  1.0
6.3386  531.1352300694  0.0
6.3488  531.2637541823  0.0
6.359   531.391885137   2.0
6.3693  531.5208745432  3.0
6.3795  531.6482189611  0.0
6.3898  531.7764165608  1.0
6.4     531.9029792699  1.0
6.4102  532.0291548209  0.0
6.4205  532.1561757226  0.0
6.4307  532.28157674    2.0
6.441   532.407817919   2.0
6.4512  532.5324491573  1.0
6.4614  532.656699146   1.0
6.4717  532.7817815845  1.0
6.4819  532.9052688597  1.0
6.4922  533.0295834747  2.0
6.5024  533.1523127185  0.0
6.5126  533.2746665308  2.0
6.5229  533.3978400889  0.0
6.5331  533.5194428275  0.0
6.5434  533.6418602799  2.0
6.5536  533.7627165553  0.0
6.5638  533.8832031288  1.0
6.5741  534.0044969378  0.0
6.5843  534.1242438997  1.0
6.5946  534.244793142   1.0
6.6048  534.3638050325  0.0
6.615   534.4824528629  0.0
6.6253  534.6018956098  2.0
6.6355  534.7198151159  0.0
6.6458  534.8385246588  0.0
6.656   534.9557203114  0.0
6.6662  535.0725574599  1.0
6.6765  535.1901773936  0.0
6.6867  535.3062973327  0.0
6.697   535.4231952518  1.0
6.7072  535.5386023841  0.0
6.7174  535.6536564834  0.0
6.7277  535.7694814219  2.0
6.7379  535.8838292571  0.0
6.7482  535.9989431997  0.0
6.7584  536.1125891062  2.0
6.7686  536.2258873674  0.0
6.7789  536.339944704   3.0
6.7891  536.4525474793  0.0
6.7994  536.5659046705  0.0
6.8096  536.6778162293  0.0
6.8198  536.7893854482  0.0
6.8301  536.9017021583  0.0
6.8403  537.0125865052  0.0
6.8506  537.1242137547  0.0
6.8608  537.2344174337  1.0
6.871   537.3442839971  2.0
6.8813  537.4548866443  1.0
6.8915  537.5640787876  1.0
6.9018  537.6740024961  0.0
6.912   537.7825243591  0.0
6.9222  537.8907142513  1.0
6.9325  537.9996289939  0.0
6.9427  538.1071547582  0.0
6.953   538.2154009234  1.0
6.9632  538.3222666366  0.0
6.9734  538.4288054453  0.0
6.9837  538.5360580424  0.0
